# Time (Myr)     rI [kpc]       vI [km/s]     
  1.3000000E-05  4.1812402E-03   111934.353837091     
  1.5399999E-05  4.1812402E-03   55610.5449525433     
  3.0859799E-05  5.1955702E-03   79323.7328102230     
  3.6831800E-05  5.9174704E-03   97635.9836024981     
  4.3998200E-05  6.5056505E-03   78717.9946744122     
  5.2597799E-05  7.1849502E-03   61125.1541255116     
  6.2917403E-05  7.6867002E-03   44087.1011621394     
  7.5300799E-05  8.2071600E-03   44407.9787399778     
  9.0161004E-05  8.9222807E-03   40117.1785856604     
  1.0100000E-04  9.2600808E-03   35351.9306131378     
  1.2100000E-04  1.0035700E-02   27813.0894170832     
  1.4500000E-04  1.0509901E-02   23676.0601245718     
  1.7380000E-04  1.1312400E-02   22754.3833459944     
  2.0836000E-04  1.1982300E-02   18598.8293993013     
  2.4983200E-04  1.2756601E-02   17903.0523614880     
  2.9959800E-04  1.3650501E-02   15605.0960941472     
  3.5931799E-04  1.4501501E-02   13191.2271425307     
  4.3098201E-04  1.5420500E-02   10509.5659578566     
  5.1697803E-04  1.6193701E-02   10380.4915952406     
  6.2017399E-04  1.7426202E-02   10165.5439612365     
  7.4400799E-04  1.8550700E-02   7777.62904046888     
  8.9261000E-04  1.9590201E-02   6978.94186744199     
  1.0010001E-03  2.0382401E-02   6715.28653965635     
  1.2009999E-03  2.1705201E-02   5758.35966226076     
  1.4410000E-03  2.2970000E-02   4955.33861018501     
  1.7290000E-03  2.4377301E-02   4550.26021423054     
  2.0746002E-03  2.5914401E-02   4158.26871953436     
  2.4893200E-03  2.7606200E-02   3636.95299733861     
  2.9869799E-03  2.9303303E-02   3068.16545502380     
  3.5841800E-03  3.1036900E-02   2788.49096125992     
  4.3008197E-03  3.3044901E-02   2445.91845453951     
  5.1607797E-03  3.4975201E-02   2161.85559476766     
  6.1927401E-03  3.7222002E-02   1888.79875876761     
  7.4310801E-03  3.9354600E-02   1609.15025459929     
  8.9170998E-03  4.1699201E-02   1484.98268202900     
  1.0001000E-02  4.3252103E-02   1297.24125302822     
  1.2001000E-02  4.5784902E-02   1142.97066145491     
  1.4401000E-02  4.8388202E-02   975.749841978909     
  1.7281000E-02  5.1046502E-02   833.555293184019     
  2.0737000E-02  5.3782005E-02   713.238227382032     
  2.4884200E-02  5.6584805E-02   599.250483019469     
  2.9860800E-02  5.9365802E-02   499.820787811164     
  3.5832800E-02  6.2173601E-02   414.585116435116     
  4.2999201E-02  6.4928703E-02   333.670557289046     
  5.1598802E-02  6.7546204E-02   266.252919468046     
  6.1918397E-02  7.0073202E-02   214.970802360674     
  7.1825102E-02  7.1986802E-02   159.624832972780     
  8.6190000E-02  7.4030004E-02   124.164509103702     
  0.1000010      7.5559705E-02   88.3738509206815     
  0.1200010      7.7081598E-02   61.0864141825583     
  0.1440010      7.8304708E-02   41.7182950345115     
  0.1728010      7.9331204E-02   27.7871665053553     
  0.2054910      8.0049701E-02   18.8306713390697     
  0.2321000      8.0471605E-02   13.2004445506522     
  0.2657520      8.0862105E-02   10.0329572486925     
  0.2998500      8.1165805E-02   8.16293531727658     
  0.3343050      8.1433602E-02   7.19585591214755     
  0.3691240      8.1674904E-02   6.70990818236297     
  0.4000010      8.1883803E-02   6.61472342593187     
  0.4355440      8.2123600E-02   6.78973508619655     
  0.4714590      8.2379304E-02   7.26017000896931     
  0.5004970      8.2605205E-02   7.91861940466956     
  0.5100640      8.2681902E-02   7.92715792722355     
  0.5196870      8.2769603E-02   8.02299188921805     
  0.5293280      8.2847305E-02   8.22247610570354     
  0.5444220      8.2970008E-02   8.36137670836463     
  0.5595500      8.3101101E-02   8.13675425505663     
  0.5747180      8.3234005E-02   8.17636915256309     
  0.6118080      8.3532706E-02   8.65658178793302     
  0.6270230      8.3674304E-02   8.91696932304025     
  0.6422660      8.3820902E-02   8.97177598694728     
  0.6575610      8.3966404E-02   9.49931650937730     
  0.6728650      8.4127806E-02   9.58368473525553     
  0.6882000      8.4273808E-02   9.58656118788897     
  0.7035670      8.4422901E-02   9.67917316671697     
  0.7189860      8.4574409E-02   9.65898545626886     
  0.7344570      8.4723510E-02   9.87733225579734     
  0.7499620      8.4879801E-02   10.1600554901304     
  0.7624080      8.5011102E-02   10.2569402924058     
  0.7723730      8.5122906E-02   10.2569402924058     
  0.7823530      8.5231699E-02   10.4044524421150     
  0.7979650      8.5402399E-02   10.5631159663987     
  0.8136380      8.5565910E-02   10.5956831096820     
  0.8236450      8.5671209E-02   10.6047256793538     
  0.8336960      8.5780904E-02   10.6182913149467     
  0.8493790      8.5952304E-02   10.6055547745246     
  0.8594430      8.6065106E-02   10.7422886870132     
  0.8695150      8.6175703E-02   10.8810574893679     
  0.8852650      8.6347707E-02   11.1255630875510     
  0.8953500      8.6457200E-02   11.1541192269144     
  0.9054440      8.6573102E-02   11.1737271941228     
  0.9155400      8.6692400E-02   11.3127408956955     
  0.9256360      8.6818404E-02   11.3605033675497     
  0.9357350      8.6940303E-02   11.5238609419359     
  0.9514990      8.7115608E-02   11.6567281184077     
  0.9672520      8.7304905E-02   11.8636973455384     
  0.9806660      8.7465309E-02   11.8294684497431     
  0.9885860      8.7563701E-02   11.8414756357668     
  0.9932610      8.7621205E-02   11.8414756357668     
  0.9960220      8.7654807E-02   11.8414756357668     
  0.9976520      8.7671705E-02   11.9278725177129     
  0.9986140      8.7685607E-02   11.9278725177129     
  0.9991820      8.7693304E-02   11.9278725177129     
   1.014980      8.7885007E-02   12.1120171377244     
   1.030750      8.8088304E-02   12.1415003319458     
   1.046530      8.8280201E-02   12.2911577988048     
   1.062310      8.8482209E-02   12.3988965344228     
   1.078090      8.8681504E-02   12.5588157237880     
   1.093890      8.8875204E-02   12.6480543272057     
   1.109690      8.9082710E-02   12.7893513800329     
   1.129430      8.9342602E-02   12.8717345864312     
   1.142080      8.9515202E-02   13.0477690348846     
   1.157890      8.9730605E-02   13.2671150232226     
   1.173690      8.9941107E-02   13.3846069815159     
   1.189500      9.0154201E-02   13.4682271516010     
   1.205320      9.0376906E-02   13.5413763216662     
   1.221150      9.0599507E-02   13.5668422781695     
   1.237010      9.0823099E-02   13.6365619686399     
   1.252870      9.1040500E-02   13.7076967313191     
   1.268780      9.1267407E-02   13.7815752557827     
   1.284720      9.1487907E-02   13.8259705860248     
   1.300690      9.1709808E-02   13.8881064156202     
   1.316720      9.1935210E-02   13.9552488757744     
   1.332760      9.2170604E-02   14.0331900556292     
   1.365020      9.2631899E-02   14.1710478328929     
   1.505460      9.4705708E-02   14.7435652098900     
   1.653580      9.6971102E-02   15.1824210464064     
   1.818190      9.9573702E-02   15.7806127668779     
   1.995360      0.1024390       15.5632580318180     
   2.196650      0.1056870       16.0149964577447     
   2.407120      0.1091260       15.9602031519769     
   2.657890      0.1132650       16.2135251220086     
   2.917440      0.1175220       16.1310003193351     
   3.200980      0.1222100       16.1841051563126     
   3.522760      0.1275380       16.2638781823182     
   3.881790      0.1335080       16.4498306038300     
   4.261400      0.1399180       16.6981388189620     
   4.692060      0.1473450       17.0168355220652     
   5.161620      0.1556450       17.5341713167161     
   5.670960      0.1649240       18.1531803612616     
   6.247380      0.1758240       18.7949018045574     
   6.876550      0.1881610       19.4431206467428     
   7.559870      0.2019260       19.9490913365925     
   8.308510      0.2173380       20.4551190211692     
   9.144340      0.2350420       20.9801473228937     
   10.05860      0.2548520       21.4589635874496     
   11.04980      0.2768450       22.0206608717235     
   12.15780      0.3020630       22.5601961125807     
   13.37840      0.3306350       23.2528067228378     
   14.72600      0.3630120       23.8480115633920     
   16.19750      0.3993420       24.4936193346421     
   17.79610      0.4399190       25.1793050855563     
   19.59870      0.4868480       25.8442554423166     
   21.55360      0.5391930       26.6277779855574     
   23.71130      0.5987350       27.3895730701757     
   26.06340      0.6656310       28.2618239359180     
   28.66820      0.7420210       29.2544049192548     
   31.53520      0.8294160       30.3774949222295     
   34.73740      0.9307621       31.6292629892340     
   38.17470       1.044260       32.9748479392191     
   41.99120       1.174880       34.2795320481675     
   46.16290       1.327740       39.7079841445040     
   50.79580       1.549130       53.7669126626756     
   55.89020       1.868250       92.3622920529064     
   61.45300       2.522260       122.551886046391     
