# Combination of files 'Test0longMellema.dat' and 'mellema_evol.dat'
#
# Apparently the plotting script they were using is also splicing
# data together. Original code is: (note 'lines'):
#
#   data Mellema/Test0_long_Mellema.dat #mellema_evol.dat #	old data
#   lines 1 73657
#   read time_mellema 1
#   read T_mellema 3
#   read xHI_mellema 2
#   set time_mellema=lg(time_mellema/3.1536e7+1e-6)
#   set T_mellema=lg(T_mellema)
#   set xHI_mellema=lg(xHI_mellema)
#
#   data Mellema/mellema_evol.dat #	old data
#   lines 67307 1000000
#   read time_mellema1 1
#   read T_mellema1 3
#   read xHI_mellema1 2
#   set time_mellema1=lg((time_mellema1+4.*3.1536e12)/3.1536e7+1e-6)
#   set T_mellema1=lg(T_mellema1)
#   set xHI_mellema1=lg(xHI_mellema1)
# Time (yr)      Neutral Fraction T [K]         
    2.002156e-06   9.999000e-01   1.049000e+02
    1.202752e-05   9.994000e-01   1.296000e+02
    2.207953e-05   9.989000e-01   1.543000e+02
    3.215373e-05   9.984000e-01   1.790000e+02
    4.226915e-05   9.979000e-01   2.037000e+02
    5.238458e-05   9.974000e-01   2.285000e+02
    6.253171e-05   9.969000e-01   2.533000e+02
    7.271055e-05   9.964000e-01   2.781000e+02
    8.292111e-05   9.958000e-01   3.029000e+02
    9.316337e-05   9.953000e-01   3.278000e+02
    1.034056e-04   9.948000e-01   3.526000e+02
    1.137113e-04   9.943000e-01   3.776000e+02
    1.240170e-04   9.938000e-01   4.025000e+02
    1.343544e-04   9.933000e-01   4.274000e+02
    1.447235e-04   9.928000e-01   4.524000e+02
    1.550926e-04   9.922000e-01   4.774000e+02
    1.655251e-04   9.917000e-01   5.025000e+02
    1.759576e-04   9.912000e-01   5.275000e+02
    1.864219e-04   9.907000e-01   5.526000e+02
    1.969178e-04   9.902000e-01   5.777000e+02
    2.074455e-04   9.896000e-01   6.028000e+02
    2.179731e-04   9.891000e-01   6.280000e+02
    2.285642e-04   9.886000e-01   6.532000e+02
    2.391553e-04   9.881000e-01   6.784000e+02
    2.497780e-04   9.875000e-01   7.036000e+02
    2.604325e-04   9.870000e-01   7.289000e+02
    2.711187e-04   9.865000e-01   7.541000e+02
    2.818366e-04   9.859000e-01   7.794000e+02
    2.925545e-04   9.854000e-01   8.048000e+02
    3.033359e-04   9.849000e-01   8.301000e+02
    3.141172e-04   9.843000e-01   8.555000e+02
    3.250254e-04   9.838000e-01   8.809000e+02
    3.358067e-04   9.833000e-01   9.063000e+02
    3.465880e-04   9.827000e-01   9.317000e+02
    3.576865e-04   9.822000e-01   9.572000e+02
    3.684678e-04   9.817000e-01   9.827000e+02
    3.795662e-04   9.811000e-01   1.008000e+03
    3.903475e-04   9.806000e-01   1.034000e+03
    4.014460e-04   9.800000e-01   1.059000e+03
    4.125444e-04   9.795000e-01   1.085000e+03
    4.236428e-04   9.789000e-01   1.110000e+03
    4.347412e-04   9.784000e-01   1.136000e+03
    4.458397e-04   9.778000e-01   1.162000e+03
    4.569381e-04   9.773000e-01   1.187000e+03
    4.680365e-04   9.768000e-01   1.213000e+03
    4.794521e-04   9.762000e-01   1.239000e+03
    4.905505e-04   9.757000e-01   1.265000e+03
    5.016489e-04   9.751000e-01   1.290000e+03
    5.130644e-04   9.745000e-01   1.316000e+03
    5.244800e-04   9.740000e-01   1.342000e+03
    5.358955e-04   9.734000e-01   1.368000e+03
    5.469939e-04   9.729000e-01   1.394000e+03
    5.584094e-04   9.723000e-01   1.420000e+03
    5.701421e-04   9.718000e-01   1.445000e+03
    5.815576e-04   9.712000e-01   1.471000e+03
    5.929731e-04   9.706000e-01   1.497000e+03
    6.043886e-04   9.701000e-01   1.523000e+03
    6.161213e-04   9.695000e-01   1.549000e+03
    6.275368e-04   9.690000e-01   1.575000e+03
    6.392694e-04   9.684000e-01   1.601000e+03
    6.510020e-04   9.678000e-01   1.627000e+03
    6.624176e-04   9.673000e-01   1.653000e+03
    6.741502e-04   9.667000e-01   1.680000e+03
    6.858828e-04   9.661000e-01   1.706000e+03
    6.976154e-04   9.655000e-01   1.732000e+03
    7.096651e-04   9.650000e-01   1.758000e+03
    7.213978e-04   9.644000e-01   1.784000e+03
    7.331304e-04   9.638000e-01   1.810000e+03
    7.451801e-04   9.632000e-01   1.837000e+03
    7.569127e-04   9.627000e-01   1.863000e+03
    7.689625e-04   9.621000e-01   1.889000e+03
    7.810122e-04   9.615000e-01   1.916000e+03
    7.930619e-04   9.609000e-01   1.942000e+03
    8.047945e-04   9.604000e-01   1.968000e+03
    8.171613e-04   9.598000e-01   1.995000e+03
    8.292111e-04   9.592000e-01   2.021000e+03
    8.412608e-04   9.586000e-01   2.047000e+03
    8.533105e-04   9.580000e-01   2.074000e+03
    8.656773e-04   9.574000e-01   2.100000e+03
    8.777270e-04   9.568000e-01   2.127000e+03
    8.900939e-04   9.563000e-01   2.153000e+03
    9.024607e-04   9.557000e-01   2.180000e+03
    9.145104e-04   9.551000e-01   2.206000e+03
    9.268772e-04   9.545000e-01   2.233000e+03
    9.392440e-04   9.539000e-01   2.259000e+03
    9.516109e-04   9.533000e-01   2.286000e+03
    9.642948e-04   9.527000e-01   2.313000e+03
    9.766616e-04   9.521000e-01   2.339000e+03
    9.890284e-04   9.515000e-01   2.366000e+03
    1.001712e-03   9.509000e-01   2.393000e+03
    1.014079e-03   9.503000e-01   2.419000e+03
    1.026763e-03   9.497000e-01   2.446000e+03
    1.039447e-03   9.491000e-01   2.473000e+03
    1.052131e-03   9.485000e-01   2.499000e+03
    1.064815e-03   9.479000e-01   2.526000e+03
    1.077499e-03   9.473000e-01   2.553000e+03
    1.090183e-03   9.467000e-01   2.580000e+03
    1.103184e-03   9.461000e-01   2.607000e+03
    1.115868e-03   9.455000e-01   2.634000e+03
    1.128869e-03   9.449000e-01   2.660000e+03
    1.141553e-03   9.442000e-01   2.687000e+03
    1.154554e-03   9.436000e-01   2.714000e+03
    1.167555e-03   9.430000e-01   2.741000e+03
    1.180556e-03   9.424000e-01   2.768000e+03
    1.193557e-03   9.418000e-01   2.795000e+03
    1.206558e-03   9.412000e-01   2.822000e+03
    1.219559e-03   9.406000e-01   2.849000e+03
    1.232560e-03   9.399000e-01   2.876000e+03
    1.245878e-03   9.393000e-01   2.903000e+03
    1.258879e-03   9.387000e-01   2.930000e+03
    1.272197e-03   9.381000e-01   2.957000e+03
    1.285515e-03   9.374000e-01   2.984000e+03
    1.298833e-03   9.368000e-01   3.012000e+03
    1.312151e-03   9.362000e-01   3.039000e+03
    1.325469e-03   9.356000e-01   3.066000e+03
    1.338787e-03   9.349000e-01   3.093000e+03
    1.352106e-03   9.343000e-01   3.120000e+03
    1.365741e-03   9.337000e-01   3.147000e+03
    1.379059e-03   9.330000e-01   3.175000e+03
    1.392694e-03   9.324000e-01   3.202000e+03
    1.406329e-03   9.318000e-01   3.229000e+03
    1.419964e-03   9.311000e-01   3.257000e+03
    1.433600e-03   9.305000e-01   3.284000e+03
    1.447235e-03   9.299000e-01   3.311000e+03
    1.460870e-03   9.292000e-01   3.339000e+03
    1.474505e-03   9.286000e-01   3.366000e+03
    1.488141e-03   9.279000e-01   3.393000e+03
    1.502093e-03   9.273000e-01   3.421000e+03
    1.516045e-03   9.267000e-01   3.448000e+03
    1.529680e-03   9.260000e-01   3.475000e+03
    1.543633e-03   9.254000e-01   3.503000e+03
    1.557585e-03   9.247000e-01   3.530000e+03
    1.571537e-03   9.241000e-01   3.558000e+03
    1.585490e-03   9.234000e-01   3.585000e+03
    1.599759e-03   9.228000e-01   3.613000e+03
    1.613711e-03   9.221000e-01   3.640000e+03
    1.627981e-03   9.215000e-01   3.668000e+03
    1.641933e-03   9.208000e-01   3.696000e+03
    1.656202e-03   9.201000e-01   3.723000e+03
    1.670472e-03   9.195000e-01   3.751000e+03
    1.684741e-03   9.188000e-01   3.778000e+03
    1.699011e-03   9.182000e-01   3.806000e+03
    1.713280e-03   9.175000e-01   3.834000e+03
    1.727549e-03   9.168000e-01   3.861000e+03
    1.742136e-03   9.162000e-01   3.889000e+03
    1.756405e-03   9.155000e-01   3.917000e+03
    1.770992e-03   9.148000e-01   3.944000e+03
    1.785578e-03   9.142000e-01   3.972000e+03
    1.800165e-03   9.135000e-01   4.000000e+03
    1.814751e-03   9.128000e-01   4.028000e+03
    1.829338e-03   9.122000e-01   4.055000e+03
    1.843924e-03   9.115000e-01   4.083000e+03
    1.858511e-03   9.108000e-01   4.111000e+03
    1.873415e-03   9.102000e-01   4.139000e+03
    1.888001e-03   9.095000e-01   4.167000e+03
    1.902905e-03   9.088000e-01   4.195000e+03
    1.917808e-03   9.081000e-01   4.222000e+03
    1.932712e-03   9.074000e-01   4.250000e+03
    1.947615e-03   9.068000e-01   4.278000e+03
    1.962519e-03   9.061000e-01   4.306000e+03
    1.977423e-03   9.054000e-01   4.334000e+03
    1.992643e-03   9.047000e-01   4.362000e+03
    2.007547e-03   9.040000e-01   4.390000e+03
    2.022768e-03   9.033000e-01   4.418000e+03
    2.037988e-03   9.027000e-01   4.446000e+03
    2.053209e-03   9.020000e-01   4.474000e+03
    2.068430e-03   9.013000e-01   4.502000e+03
    2.083650e-03   9.006000e-01   4.530000e+03
    2.098871e-03   8.999000e-01   4.558000e+03
    2.114092e-03   8.992000e-01   4.586000e+03
    2.129630e-03   8.985000e-01   4.614000e+03
    2.145167e-03   8.978000e-01   4.642000e+03
    2.160388e-03   8.971000e-01   4.670000e+03
    2.175926e-03   8.964000e-01   4.699000e+03
    2.191464e-03   8.957000e-01   4.727000e+03
    2.207002e-03   8.950000e-01   4.755000e+03
    2.222856e-03   8.943000e-01   4.783000e+03
    2.238394e-03   8.936000e-01   4.811000e+03
    2.253932e-03   8.929000e-01   4.839000e+03
    2.269787e-03   8.922000e-01   4.868000e+03
    2.285642e-03   8.915000e-01   4.896000e+03
    2.301497e-03   8.908000e-01   4.924000e+03
    2.317352e-03   8.901000e-01   4.952000e+03
    2.333206e-03   8.894000e-01   4.980000e+03
    2.349061e-03   8.887000e-01   5.009000e+03
    2.365233e-03   8.879000e-01   5.037000e+03
    2.381088e-03   8.872000e-01   5.065000e+03
    2.397260e-03   8.865000e-01   5.094000e+03
    2.413115e-03   8.858000e-01   5.122000e+03
    2.429287e-03   8.851000e-01   5.150000e+03
    2.445459e-03   8.844000e-01   5.179000e+03
    2.461948e-03   8.836000e-01   5.207000e+03
    2.478120e-03   8.829000e-01   5.235000e+03
    2.494292e-03   8.822000e-01   5.264000e+03
    2.510781e-03   8.815000e-01   5.292000e+03
    2.527270e-03   8.807000e-01   5.320000e+03
    2.543442e-03   8.800000e-01   5.349000e+03
    2.559932e-03   8.793000e-01   5.377000e+03
    2.576421e-03   8.786000e-01   5.406000e+03
    2.593227e-03   8.778000e-01   5.434000e+03
    2.609716e-03   8.771000e-01   5.463000e+03
    2.626205e-03   8.764000e-01   5.491000e+03
    2.643011e-03   8.756000e-01   5.520000e+03
    2.659817e-03   8.749000e-01   5.548000e+03
    2.676624e-03   8.742000e-01   5.577000e+03
    2.693430e-03   8.734000e-01   5.605000e+03
    2.710236e-03   8.727000e-01   5.634000e+03
    2.727042e-03   8.719000e-01   5.662000e+03
    2.743848e-03   8.712000e-01   5.691000e+03
    2.760972e-03   8.704000e-01   5.719000e+03
    2.778095e-03   8.697000e-01   5.748000e+03
    2.795218e-03   8.690000e-01   5.776000e+03
    2.812024e-03   8.682000e-01   5.805000e+03
    2.829465e-03   8.675000e-01   5.833000e+03
    2.846588e-03   8.667000e-01   5.862000e+03
    2.863711e-03   8.660000e-01   5.891000e+03
    2.881152e-03   8.652000e-01   5.919000e+03
    2.898275e-03   8.645000e-01   5.948000e+03
    2.915715e-03   8.637000e-01   5.977000e+03
    2.933156e-03   8.629000e-01   6.005000e+03
    2.950596e-03   8.622000e-01   6.034000e+03
    2.968037e-03   8.614000e-01   6.063000e+03
    2.985794e-03   8.607000e-01   6.091000e+03
    3.003234e-03   8.599000e-01   6.120000e+03
    3.020992e-03   8.592000e-01   6.149000e+03
    3.038432e-03   8.584000e-01   6.177000e+03
    3.056190e-03   8.576000e-01   6.206000e+03
    3.073947e-03   8.569000e-01   6.235000e+03
    3.092022e-03   8.561000e-01   6.264000e+03
    3.109779e-03   8.553000e-01   6.292000e+03
    3.127537e-03   8.546000e-01   6.321000e+03
    3.145611e-03   8.538000e-01   6.350000e+03
    3.163686e-03   8.530000e-01   6.379000e+03
    3.180492e-03   8.522000e-01   6.407000e+03
    3.199518e-03   8.515000e-01   6.436000e+03
    3.218544e-03   8.507000e-01   6.465000e+03
    3.237570e-03   8.499000e-01   6.494000e+03
    3.253425e-03   8.491000e-01   6.522000e+03
    3.272451e-03   8.484000e-01   6.551000e+03
    3.291476e-03   8.476000e-01   6.580000e+03
    3.310502e-03   8.468000e-01   6.609000e+03
    3.326357e-03   8.460000e-01   6.638000e+03
    3.345383e-03   8.452000e-01   6.667000e+03
    3.364409e-03   8.444000e-01   6.695000e+03
    3.383435e-03   8.437000e-01   6.724000e+03
    3.402461e-03   8.429000e-01   6.753000e+03
    3.421487e-03   8.421000e-01   6.782000e+03
    3.440512e-03   8.413000e-01   6.811000e+03
    3.456367e-03   8.405000e-01   6.840000e+03
    3.475393e-03   8.397000e-01   6.869000e+03
    3.494419e-03   8.389000e-01   6.898000e+03
    3.513445e-03   8.381000e-01   6.926000e+03
    3.532471e-03   8.373000e-01   6.955000e+03
    3.551497e-03   8.365000e-01   6.984000e+03
    3.570523e-03   8.357000e-01   7.013000e+03
    3.589548e-03   8.349000e-01   7.042000e+03
    3.608574e-03   8.341000e-01   7.071000e+03
    3.627600e-03   8.333000e-01   7.100000e+03
    3.646626e-03   8.325000e-01   7.129000e+03
    3.665652e-03   8.317000e-01   7.158000e+03
    3.687849e-03   8.309000e-01   7.187000e+03
    3.706875e-03   8.301000e-01   7.216000e+03
    3.725901e-03   8.293000e-01   7.245000e+03
    3.744926e-03   8.285000e-01   7.274000e+03
    3.763952e-03   8.276000e-01   7.303000e+03
    3.782978e-03   8.268000e-01   7.332000e+03
    3.802004e-03   8.260000e-01   7.361000e+03
    3.824201e-03   8.252000e-01   7.390000e+03
    3.843227e-03   8.244000e-01   7.419000e+03
    3.862253e-03   8.236000e-01   7.448000e+03
    3.881279e-03   8.227000e-01   7.477000e+03
    3.903475e-03   8.219000e-01   7.506000e+03
    3.922501e-03   8.211000e-01   7.535000e+03
    3.941527e-03   8.203000e-01   7.564000e+03
    3.963724e-03   8.195000e-01   7.593000e+03
    3.982750e-03   8.186000e-01   7.622000e+03
    4.001776e-03   8.178000e-01   7.651000e+03
    4.023973e-03   8.170000e-01   7.680000e+03
    4.042998e-03   8.161000e-01   7.709000e+03
    4.062024e-03   8.153000e-01   7.738000e+03
    4.084221e-03   8.145000e-01   7.767000e+03
    4.103247e-03   8.136000e-01   7.796000e+03
    4.125444e-03   8.128000e-01   7.825000e+03
    4.144470e-03   8.120000e-01   7.854000e+03
    4.166667e-03   8.111000e-01   7.883000e+03
    4.185693e-03   8.103000e-01   7.912000e+03
    4.207889e-03   8.095000e-01   7.941000e+03
    4.226915e-03   8.086000e-01   7.970000e+03
    4.249112e-03   8.078000e-01   7.999000e+03
    4.268138e-03   8.069000e-01   8.028000e+03
    4.290335e-03   8.061000e-01   8.057000e+03
    4.309361e-03   8.052000e-01   8.086000e+03
    4.331558e-03   8.044000e-01   8.115000e+03
    4.353754e-03   8.035000e-01   8.145000e+03
    4.372780e-03   8.027000e-01   8.174000e+03
    4.394977e-03   8.018000e-01   8.203000e+03
    4.417174e-03   8.010000e-01   8.232000e+03
    4.436200e-03   8.001000e-01   8.261000e+03
    4.458397e-03   7.993000e-01   8.290000e+03
    4.480594e-03   7.984000e-01   8.319000e+03
    4.499619e-03   7.976000e-01   8.348000e+03
    4.521816e-03   7.967000e-01   8.377000e+03
    4.544013e-03   7.959000e-01   8.406000e+03
    4.566210e-03   7.950000e-01   8.435000e+03
    4.588407e-03   7.941000e-01   8.464000e+03
    4.607433e-03   7.933000e-01   8.493000e+03
    4.629630e-03   7.924000e-01   8.522000e+03
    4.651826e-03   7.915000e-01   8.552000e+03
    4.674023e-03   7.907000e-01   8.581000e+03
    4.696220e-03   7.898000e-01   8.610000e+03
    4.718417e-03   7.889000e-01   8.639000e+03
    4.740614e-03   7.881000e-01   8.668000e+03
    4.762811e-03   7.872000e-01   8.697000e+03
    4.785008e-03   7.863000e-01   8.726000e+03
    4.807204e-03   7.854000e-01   8.755000e+03
    4.829401e-03   7.846000e-01   8.784000e+03
    4.851598e-03   7.837000e-01   8.813000e+03
    4.873795e-03   7.828000e-01   8.842000e+03
    4.895992e-03   7.819000e-01   8.871000e+03
    4.918189e-03   7.810000e-01   8.901000e+03
    4.940386e-03   7.802000e-01   8.930000e+03
    4.962582e-03   7.793000e-01   8.959000e+03
    4.984779e-03   7.784000e-01   8.988000e+03
    5.006976e-03   7.775000e-01   9.017000e+03
    5.029173e-03   7.766000e-01   9.046000e+03
    5.054541e-03   7.757000e-01   9.075000e+03
    5.076738e-03   7.748000e-01   9.104000e+03
    5.098935e-03   7.739000e-01   9.133000e+03
    5.121131e-03   7.731000e-01   9.162000e+03
    5.146499e-03   7.722000e-01   9.191000e+03
    5.168696e-03   7.713000e-01   9.220000e+03
    5.190893e-03   7.704000e-01   9.249000e+03
    5.213090e-03   7.695000e-01   9.278000e+03
    5.238458e-03   7.686000e-01   9.307000e+03
    5.260654e-03   7.677000e-01   9.336000e+03
    5.286022e-03   7.668000e-01   9.365000e+03
    5.308219e-03   7.659000e-01   9.394000e+03
    5.330416e-03   7.650000e-01   9.424000e+03
    5.355784e-03   7.641000e-01   9.453000e+03
    5.377981e-03   7.632000e-01   9.482000e+03
    5.403349e-03   7.623000e-01   9.511000e+03
    5.425545e-03   7.613000e-01   9.540000e+03
    5.450913e-03   7.604000e-01   9.569000e+03
    5.473110e-03   7.595000e-01   9.598000e+03
    5.498478e-03   7.586000e-01   9.627000e+03
    5.520675e-03   7.577000e-01   9.656000e+03
    5.546043e-03   7.568000e-01   9.685000e+03
    5.568239e-03   7.559000e-01   9.714000e+03
    5.593607e-03   7.550000e-01   9.743000e+03
    5.618975e-03   7.540000e-01   9.772000e+03
    5.641172e-03   7.531000e-01   9.801000e+03
    5.666540e-03   7.522000e-01   9.830000e+03
    5.691908e-03   7.513000e-01   9.859000e+03
    5.714105e-03   7.504000e-01   9.888000e+03
    5.739472e-03   7.494000e-01   9.916000e+03
    5.764840e-03   7.485000e-01   9.945000e+03
    5.790208e-03   7.476000e-01   9.974000e+03
    5.812405e-03   7.467000e-01   1.000000e+04
    5.837773e-03   7.457000e-01   1.003000e+04
    5.863141e-03   7.448000e-01   1.006000e+04
    5.888508e-03   7.439000e-01   1.009000e+04
    5.913876e-03   7.429000e-01   1.012000e+04
    5.939244e-03   7.420000e-01   1.015000e+04
    5.964612e-03   7.411000e-01   1.018000e+04
    5.989980e-03   7.401000e-01   1.021000e+04
    6.012177e-03   7.392000e-01   1.023000e+04
    6.037544e-03   7.383000e-01   1.026000e+04
    6.062912e-03   7.373000e-01   1.029000e+04
    6.088280e-03   7.364000e-01   1.032000e+04
    6.113648e-03   7.354000e-01   1.035000e+04
    6.142187e-03   7.345000e-01   1.038000e+04
    6.167555e-03   7.335000e-01   1.041000e+04
    6.192922e-03   7.326000e-01   1.044000e+04
    6.218290e-03   7.317000e-01   1.047000e+04
    6.243658e-03   7.307000e-01   1.049000e+04
    6.269026e-03   7.298000e-01   1.052000e+04
    6.294394e-03   7.288000e-01   1.055000e+04
    6.319762e-03   7.279000e-01   1.058000e+04
    6.348300e-03   7.269000e-01   1.061000e+04
    6.373668e-03   7.259000e-01   1.064000e+04
    6.399036e-03   7.250000e-01   1.067000e+04
    6.424404e-03   7.240000e-01   1.070000e+04
    6.452943e-03   7.231000e-01   1.072000e+04
    6.478311e-03   7.221000e-01   1.075000e+04
    6.503678e-03   7.212000e-01   1.078000e+04
    6.532217e-03   7.202000e-01   1.081000e+04
    6.557585e-03   7.192000e-01   1.084000e+04
    6.586124e-03   7.183000e-01   1.087000e+04
    6.611492e-03   7.173000e-01   1.090000e+04
    6.636859e-03   7.163000e-01   1.093000e+04
    6.665398e-03   7.154000e-01   1.095000e+04
    6.690766e-03   7.144000e-01   1.098000e+04
    6.719305e-03   7.134000e-01   1.101000e+04
    6.744673e-03   7.125000e-01   1.104000e+04
    6.773212e-03   7.115000e-01   1.107000e+04
    6.801750e-03   7.105000e-01   1.110000e+04
    6.827118e-03   7.096000e-01   1.113000e+04
    6.855657e-03   7.086000e-01   1.116000e+04
    6.881025e-03   7.076000e-01   1.118000e+04
    6.909564e-03   7.066000e-01   1.121000e+04
    6.938102e-03   7.057000e-01   1.124000e+04
    6.963470e-03   7.047000e-01   1.127000e+04
    6.992009e-03   7.037000e-01   1.130000e+04
    7.020548e-03   7.027000e-01   1.133000e+04
    7.049087e-03   7.017000e-01   1.136000e+04
    7.077626e-03   7.008000e-01   1.138000e+04
    7.102993e-03   6.998000e-01   1.141000e+04
    7.131532e-03   6.988000e-01   1.144000e+04
