# file 'T0_razoumov_evolution_caseB.dat'
#    time (yr)   neutral fraction   temperature
       2.019E-05    9.98969E-01           151.
       4.079E-05    9.97919E-01           202.
       6.180E-05    9.96849E-01           254.
       8.324E-05    9.95758E-01           308.
       1.051E-04    9.94646E-01           362.
       1.274E-04    9.93513E-01           417.
       1.502E-04    9.92359E-01           474.
       1.734E-04    9.91183E-01           531.
       1.971E-04    9.89984E-01           589.
       2.213E-04    9.88763E-01           648.
       2.459E-04    9.87518E-01           709.
       2.711E-04    9.86250E-01           770.
       2.968E-04    9.84958E-01           833.
       3.229E-04    9.83642E-01           896.
       3.497E-04    9.82301E-01           961.
       3.769E-04    9.80935E-01          1027.
       4.047E-04    9.79543E-01          1094.
       4.331E-04    9.78126E-01          1162.
       4.620E-04    9.76681E-01          1231.
       4.915E-04    9.75210E-01          1302.
       5.216E-04    9.73711E-01          1374.
       5.524E-04    9.72185E-01          1447.
       5.837E-04    9.70630E-01          1521.
       6.157E-04    9.69046E-01          1596.
       6.483E-04    9.67433E-01          1673.
       6.816E-04    9.65790E-01          1751.
       7.155E-04    9.64117E-01          1830.
       7.502E-04    9.62413E-01          1911.
       7.855E-04    9.60677E-01          1993.
       8.216E-04    9.58910E-01          2076.
       8.584E-04    9.57111E-01          2161.
       8.959E-04    9.55278E-01          2247.
       9.342E-04    9.53413E-01          2335.
       9.732E-04    9.51513E-01          2424.
       1.013E-03    9.49579E-01          2514.
       1.054E-03    9.47610E-01          2606.
       1.095E-03    9.45605E-01          2700.
       1.137E-03    9.43565E-01          2794.
       1.181E-03    9.41487E-01          2891.
       1.225E-03    9.39373E-01          2989.
       1.270E-03    9.37220E-01          3088.
       1.315E-03    9.35030E-01          3189.
       1.362E-03    9.32800E-01          3292.
       1.410E-03    9.30531E-01          3396.
       1.458E-03    9.28221E-01          3502.
       1.508E-03    9.25871E-01          3610.
       1.559E-03    9.23480E-01          3719.
       1.610E-03    9.21046E-01          3830.
       1.663E-03    9.18570E-01          3942.
       1.717E-03    9.16051E-01          4056.
       1.772E-03    9.13489E-01          4172.
       1.828E-03    9.10882E-01          4290.
       1.885E-03    9.08229E-01          4409.
       1.943E-03    9.05532E-01          4530.
       2.003E-03    9.02788E-01          4653.
       2.063E-03    8.99997E-01          4778.
       2.125E-03    8.97159E-01          4904.
       2.188E-03    8.94273E-01          5033.
       2.252E-03    8.91338E-01          5163.
       2.318E-03    8.88354E-01          5295.
       2.385E-03    8.85320E-01          5429.
       2.453E-03    8.82235E-01          5564.
       2.523E-03    8.79099E-01          5702.
       2.594E-03    8.75911E-01          5841.
       2.667E-03    8.72671E-01          5982.
       2.741E-03    8.69377E-01          6126.
       2.816E-03    8.66030E-01          6271.
       2.894E-03    8.62629E-01          6418.
       2.972E-03    8.59173E-01          6567.
       3.052E-03    8.55661E-01          6717.
       3.134E-03    8.52093E-01          6870.
       3.218E-03    8.48469E-01          7025.
       3.303E-03    8.44787E-01          7182.
       3.390E-03    8.41047E-01          7340.
       3.478E-03    8.37249E-01          7501.
       3.569E-03    8.33392E-01          7663.
       3.661E-03    8.29475E-01          7828.
       3.755E-03    8.25499E-01          7994.
       3.851E-03    8.21461E-01          8163.
       3.949E-03    8.17362E-01          8333.
       4.049E-03    8.13202E-01          8506.
       4.151E-03    8.08980E-01          8680.
       4.255E-03    8.04695E-01          8856.
       4.361E-03    8.00346E-01          9035.
       4.469E-03    7.95935E-01          9215.
       4.580E-03    7.91459E-01          9397.
       4.692E-03    7.86919E-01          9581.
       4.807E-03    7.82314E-01          9767.
       4.925E-03    7.77643E-01          9955.
       5.044E-03    7.72908E-01         10145.
       5.166E-03    7.68106E-01         10336.
       5.291E-03    7.63238E-01         10530.
       5.418E-03    7.58304E-01         10725.
       5.547E-03    7.53302E-01         10923.
       5.680E-03    7.48234E-01         11122.
       5.814E-03    7.43099E-01         11323.
       5.952E-03    7.37896E-01         11526.
       6.092E-03    7.32626E-01         11730.
       6.236E-03    7.27289E-01         11936.
       6.382E-03    7.21883E-01         12145.
       6.531E-03    7.16410E-01         12354.
       6.683E-03    7.10869E-01         12566.
       6.838E-03    7.05261E-01         12779.
       6.996E-03    6.99585E-01         12994.
       7.158E-03    6.93841E-01         13210.
       7.322E-03    6.88030E-01         13428.
       7.490E-03    6.82152E-01         13647.
       7.662E-03    6.76207E-01         13868.
       7.837E-03    6.70195E-01         14091.
       8.015E-03    6.64117E-01         14315.
       8.197E-03    6.57973E-01         14540.
       8.383E-03    6.51763E-01         14767.
       8.572E-03    6.45489E-01         14995.
       8.766E-03    6.39150E-01         15224.
       8.963E-03    6.32748E-01         15454.
       9.164E-03    6.26282E-01         15686.
       9.369E-03    6.19754E-01         15919.
       9.578E-03    6.13164E-01         16152.
       9.792E-03    6.06513E-01         16387.
       1.001E-02    5.99803E-01         16623.
       1.023E-02    5.93033E-01         16860.
       1.046E-02    5.86206E-01         17098.
       1.069E-02    5.79322E-01         17336.
       1.093E-02    5.72382E-01         17575.
       1.117E-02    5.65387E-01         17815.
       1.141E-02    5.58340E-01         18056.
       1.166E-02    5.51241E-01         18297.
       1.192E-02    5.44091E-01         18539.
       1.218E-02    5.36893E-01         18781.
       1.245E-02    5.29648E-01         19024.
       1.272E-02    5.22357E-01         19267.
       1.299E-02    5.15022E-01         19510.
       1.328E-02    5.07645E-01         19753.
       1.357E-02    5.00229E-01         19996.
       1.386E-02    4.92774E-01         20240.
       1.416E-02    4.85284E-01         20483.
       1.447E-02    4.77759E-01         20727.
       1.478E-02    4.70203E-01         20970.
       1.510E-02    4.62617E-01         21213.
       1.542E-02    4.55005E-01         21455.
       1.575E-02    4.47368E-01         21697.
       1.609E-02    4.39708E-01         21939.
       1.644E-02    4.32030E-01         22180.
       1.679E-02    4.24334E-01         22421.
       1.715E-02    4.16625E-01         22660.
       1.751E-02    4.08904E-01         22899.
       1.789E-02    4.01175E-01         23137.
       1.827E-02    3.93440E-01         23374.
       1.866E-02    3.85703E-01         23610.
       1.906E-02    3.77967E-01         23845.
       1.946E-02    3.70234E-01         24079.
       1.987E-02    3.62508E-01         24311.
       2.029E-02    3.54792E-01         24542.
       2.072E-02    3.47090E-01         24771.
       2.116E-02    3.39405E-01         24999.
       2.161E-02    3.31740E-01         25225.
       2.207E-02    3.24099E-01         25450.
       2.253E-02    3.16484E-01         25672.
       2.301E-02    3.08901E-01         25893.
       2.349E-02    3.01352E-01         26112.
       2.399E-02    2.93840E-01         26329.
       2.449E-02    2.86370E-01         26543.
       2.501E-02    2.78944E-01         26756.
       2.553E-02    2.71568E-01         26966.
       2.607E-02    2.64243E-01         27174.
       2.661E-02    2.56974E-01         27379.
       2.717E-02    2.49764E-01         27582.
       2.774E-02    2.42618E-01         27782.
       2.832E-02    2.35537E-01         27979.
       2.891E-02    2.28527E-01         28174.
       2.952E-02    2.21591E-01         28366.
       3.013E-02    2.14731E-01         28555.
       3.076E-02    2.07952E-01         28741.
       3.140E-02    2.01256E-01         28925.
       3.206E-02    1.94648E-01         29105.
       3.273E-02    1.88129E-01         29282.
       3.341E-02    1.81704E-01         29456.
       3.410E-02    1.75376E-01         29627.
       3.481E-02    1.69147E-01         29794.
       3.553E-02    1.63020E-01         29958.
       3.627E-02    1.56998E-01         30119.
       3.702E-02    1.51084E-01         30276.
       3.779E-02    1.45280E-01         30430.
       3.857E-02    1.39589E-01         30581.
       3.937E-02    1.34012E-01         30728.
       4.019E-02    1.28553E-01         30872.
       4.102E-02    1.23213E-01         31012.
       4.187E-02    1.17993E-01         31148.
       4.273E-02    1.12896E-01         31281.
       4.362E-02    1.07923E-01         31411.
       4.452E-02    1.03075E-01         31536.
       4.544E-02    9.83540E-02         31658.
       4.637E-02    9.37604E-02         31777.
       4.733E-02    8.92952E-02         31892.
       4.831E-02    8.49589E-02         32004.
       4.930E-02    8.07522E-02         32111.
       5.032E-02    7.66751E-02         32216.
       5.135E-02    7.27279E-02         32317.
       5.241E-02    6.89105E-02         32414.
       5.349E-02    6.52224E-02         32508.
       5.459E-02    6.16633E-02         32598.
       5.571E-02    5.82325E-02         32685.
       5.686E-02    5.49291E-02         32769.
       5.803E-02    5.17522E-02         32849.
       5.922E-02    4.87005E-02         32926.
       6.043E-02    4.57726E-02         33000.
       6.167E-02    4.29669E-02         33070.
       6.294E-02    4.02819E-02         33138.
       6.423E-02    3.77156E-02         33202.
       6.555E-02    3.52659E-02         33263.
       6.689E-02    3.29307E-02         33322.
       6.826E-02    3.07077E-02         33377.
       6.966E-02    2.85945E-02         33430.
       7.109E-02    2.65885E-02         33480.
       7.254E-02    2.46870E-02         33528.
       7.403E-02    2.28872E-02         33572.
       7.554E-02    2.11863E-02         33615.
       7.709E-02    1.95813E-02         33655.
       7.866E-02    1.80692E-02         33692.
       8.027E-02    1.66468E-02         33727.
       8.191E-02    1.53111E-02         33761.
       8.359E-02    1.40589E-02         33792.
       8.529E-02    1.28869E-02         33821.
       8.704E-02    1.17919E-02         33848.
       8.881E-02    1.07707E-02         33873.
       9.063E-02    9.82000E-03         33897.
       9.248E-02    8.93655E-03         33919.
       9.437E-02    8.11715E-03         33939.
       9.629E-02    7.35861E-03         33958.
       9.826E-02    6.65779E-03         33975.
       1.003E-01    6.01159E-03         33991.
       1.023E-01    5.41696E-03         34006.
       1.044E-01    4.87091E-03         34019.
       1.065E-01    4.37055E-03         34031.
       1.087E-01    3.91304E-03         34043.
       1.109E-01    3.49564E-03         34053.
       1.132E-01    3.11567E-03         34062.
       1.155E-01    2.77058E-03         34071.
       1.178E-01    2.45790E-03         34079.
       1.202E-01    2.17525E-03         34086.
       1.227E-01    1.92039E-03         34092.
       1.252E-01    1.69113E-03         34098.
       1.277E-01    1.48544E-03         34103.
       1.303E-01    1.30137E-03         34107.
       1.330E-01    1.13708E-03         34111.
       1.357E-01    9.90836E-04         34115.
       1.384E-01    8.61013E-04         34118.
       1.412E-01    7.46090E-04         34121.
       1.441E-01    6.44647E-04         34123.
       1.470E-01    5.55362E-04         34126.
       1.500E-01    4.77012E-04         34128.
       1.531E-01    4.08465E-04         34129.
       1.562E-01    3.48681E-04         34131.
       1.594E-01    2.96701E-04         34132.
       1.626E-01    2.51654E-04         34133.
       1.659E-01    2.12742E-04         34134.
       1.693E-01    1.79242E-04         34135.
       1.727E-01    1.50499E-04         34136.
       1.762E-01    1.25923E-04         34136.
       1.798E-01    1.04985E-04         34137.
       1.835E-01    8.72110E-05         34137.
       1.872E-01    7.21780E-05         34138.
       1.910E-01    5.95114E-05         34138.
       1.949E-01    4.88794E-05         34138.
       1.988E-01    3.99903E-05         34138.
       2.028E-01    3.25879E-05         34139.
       2.070E-01    2.64487E-05         34139.
       2.112E-01    2.13782E-05         34139.
       2.154E-01    1.72082E-05         34139.
       2.198E-01    1.37934E-05         34139.
       2.243E-01    1.10095E-05         34139.
       2.288E-01    8.75007E-06         34139.
       2.335E-01    6.92469E-06         34139.
       2.382E-01    5.45688E-06         34139.
       2.430E-01    4.28221E-06         34139.
       2.479E-01    3.34670E-06         34139.
       2.530E-01    2.60536E-06         34139.
       2.581E-01    2.02085E-06         34139.
       2.633E-01    1.56236E-06         34139.
       2.687E-01    1.20463E-06         34139.
       2.741E-01    9.26996E-07         34139.
       2.797E-01    7.12710E-07         34139.
       2.853E-01    5.48238E-07         34139.
       2.911E-01    4.22716E-07         34139.
       2.970E-01    3.27478E-07         34139.
       3.030E-01    2.55644E-07         34139.
       3.092E-01    2.01788E-07         34139.
       3.154E-01    1.61660E-07         34139.
       3.218E-01    1.31948E-07         34139.
       3.283E-01    1.10090E-07         34139.
       3.350E-01    9.41126E-08         34139.
       3.418E-01    8.25143E-08         34139.
       3.487E-01    7.41502E-08         34139.
       3.558E-01    6.81595E-08         34139.
       3.630E-01    6.38996E-08         34139.
       3.703E-01    6.08919E-08         34139.
       3.778E-01    5.87839E-08         34139.
       3.855E-01    5.73185E-08         34139.
       3.933E-01    5.63061E-08         34139.
       4.012E-01    5.56135E-08         34139.
       4.093E-01    5.51429E-08         34139.
       4.176E-01    5.48258E-08         34139.
       4.261E-01    5.46134E-08         34139.
       4.347E-01    5.44734E-08         34139.
       4.435E-01    5.43812E-08         34139.
       4.525E-01    5.43204E-08         34139.
       4.616E-01    5.42836E-08         34139.
       4.710E-01    5.42575E-08         34139.
       4.805E-01    5.42402E-08         34139.
       4.902E-01    5.42313E-08         34139.
       5.001E-01    5.42254E-08         34139.
       5.103E-01    5.42235E-08         34139.
       5.206E-01    5.42233E-08         34139.
       5.311E-01    5.42226E-08         34139.
       5.419E-01    5.42209E-08         34139.
       5.528E-01    5.42203E-08         34139.
       5.640E-01    5.42196E-08         34139.
       5.754E-01    5.42189E-08         34139.
       5.871E-01    5.42182E-08         34139.
       5.989E-01    5.42180E-08         34139.
       6.110E-01    5.42158E-08         34139.
       6.234E-01    5.42160E-08         34139.
       6.360E-01    5.42153E-08         34139.
       6.489E-01    5.42156E-08         34139.
       6.620E-01    5.42159E-08         34139.
       6.754E-01    5.42173E-08         34139.
       6.890E-01    5.42159E-08         34139.
       7.030E-01    5.42151E-08         34139.
       7.172E-01    5.42154E-08         34139.
       7.317E-01    5.42170E-08         34139.
       7.465E-01    5.42173E-08         34139.
       7.616E-01    5.42189E-08         34139.
       7.770E-01    5.42212E-08         34139.
       7.927E-01    5.42201E-08         34139.
       8.087E-01    5.42191E-08         34139.
       8.250E-01    5.42195E-08         34139.
       8.417E-01    5.42178E-08         34139.
       8.587E-01    5.42188E-08         34139.
       8.761E-01    5.42185E-08         34139.
       8.938E-01    5.42167E-08         34139.
       9.119E-01    5.42186E-08         34139.
       9.303E-01    5.42175E-08         34139.
       9.491E-01    5.42172E-08         34139.
       9.683E-01    5.42168E-08         34139.
       9.879E-01    5.42172E-08         34139.
       1.008E+00    5.42193E-08         34139.
       1.028E+00    5.42181E-08         34139.
       1.049E+00    5.42143E-08         34139.
       1.070E+00    5.42174E-08         34139.
       1.092E+00    5.42170E-08         34139.
       1.114E+00    5.42166E-08         34139.
       1.136E+00    5.42189E-08         34139.
       1.159E+00    5.42194E-08         34139.
       1.183E+00    5.42161E-08         34139.
       1.207E+00    5.42156E-08         34139.
       1.231E+00    5.42161E-08         34139.
       1.256E+00    5.42137E-08         34139.
       1.281E+00    5.42163E-08         34139.
       1.307E+00    5.42168E-08         34139.
       1.334E+00    5.42184E-08         34139.
       1.361E+00    5.42168E-08         34139.
       1.388E+00    5.42174E-08         34139.
       1.416E+00    5.42158E-08         34139.
       1.445E+00    5.42187E-08         34139.
       1.474E+00    5.42158E-08         34139.
       1.504E+00    5.42200E-08         34139.
       1.534E+00    5.42194E-08         34139.
       1.565E+00    5.42210E-08         34139.
       1.597E+00    5.42166E-08         34139.
       1.629E+00    5.42172E-08         34139.
       1.662E+00    5.42166E-08         34139.
       1.695E+00    5.42200E-08         34139.
       1.730E+00    5.42193E-08         34139.
       1.765E+00    5.42159E-08         34139.
       1.800E+00    5.42110E-08         34139.
       1.837E+00    5.42160E-08         34139.
       1.874E+00    5.42182E-08         34139.
       1.912E+00    5.42186E-08         34139.
       1.950E+00    5.42194E-08         34139.
       1.990E+00    5.42202E-08         34139.
       2.030E+00    5.42163E-08         34139.
       2.071E+00    5.42187E-08         34139.
       2.113E+00    5.42195E-08         34139.
       2.155E+00    5.42153E-08         34139.
       2.199E+00    5.42196E-08         34139.
       2.243E+00    5.42187E-08         34139.
       2.289E+00    5.42179E-08         34139.
       2.335E+00    5.42170E-08         34139.
       2.382E+00    5.42197E-08         34139.
       2.430E+00    5.42169E-08         34139.
       2.479E+00    5.42178E-08         34139.
       2.529E+00    5.42187E-08         34139.
       2.580E+00    5.42177E-08         34139.
       2.632E+00    5.42127E-08         34139.
       2.686E+00    5.42177E-08         34139.
       2.740E+00    5.42166E-08         34139.
       2.795E+00    5.42134E-08         34139.
       2.852E+00    5.42160E-08         34139.
       2.909E+00    5.42170E-08         34139.
       2.968E+00    5.42180E-08         34139.
       3.028E+00    5.42168E-08         34139.
       3.089E+00    5.42156E-08         34139.
       3.152E+00    5.42167E-08         34139.
       3.215E+00    5.42201E-08         34139.
       3.280E+00    5.42212E-08         34139.
       3.346E+00    5.42174E-08         34139.
       3.414E+00    5.42210E-08         34139.
       3.483E+00    5.42146E-08         34139.
       3.553E+00    5.42202E-08         34139.
       3.625E+00    5.42187E-08         34139.
       3.698E+00    5.42173E-08         34139.
       3.773E+00    5.42157E-08         34139.
       3.849E+00    5.42169E-08         34139.
       3.927E+00    5.42153E-08         34139.
       4.006E+00    5.42194E-08         34139.
       4.087E+00    5.42206E-08         34139.
       4.170E+00    5.42189E-08         34139.
       4.254E+00    5.42172E-08         34139.
       4.340E+00    5.42154E-08         34139.
       4.427E+00    5.42197E-08         34139.
       4.517E+00    5.42178E-08         34139.
       4.608E+00    5.42256E-08         34139.
       4.701E+00    5.42204E-08         34139.
