#    t [Myr]     r [kpc]    v [km/s]
  0.1004E-01  0.1023E+00  0.1066E+05
  0.1014E-01  0.1036E+00  0.1351E+05
  0.1024E-01  0.1050E+00  0.1395E+05
  0.1034E-01  0.1064E+00  0.1342E+05
  0.1045E-01  0.1078E+00  0.1296E+05
  0.1055E-01  0.1092E+00  0.1250E+05
  0.1066E-01  0.1105E+00  0.1208E+05
  0.1076E-01  0.1118E+00  0.1166E+05
  0.1087E-01  0.1130E+00  0.1127E+05
  0.1098E-01  0.1143E+00  0.1091E+05
  0.1109E-01  0.1155E+00  0.1055E+05
  0.1120E-01  0.1167E+00  0.1021E+05
  0.1131E-01  0.1178E+00  0.9899E+04
  0.1142E-01  0.1189E+00  0.9589E+04
  0.1154E-01  0.1200E+00  0.9304E+04
  0.1165E-01  0.1211E+00  0.9025E+04
  0.1177E-01  0.1222E+00  0.8770E+04
  0.1189E-01  0.1232E+00  0.8521E+04
  0.1201E-01  0.1242E+00  0.8284E+04
  0.1213E-01  0.1252E+00  0.8061E+04
  0.1225E-01  0.1262E+00  0.7850E+04
  0.1237E-01  0.1272E+00  0.7656E+04
  0.1250E-01  0.1281E+00  0.7456E+04
  0.1262E-01  0.1291E+00  0.7278E+04
  0.1275E-01  0.1300E+00  0.7110E+04
  0.1287E-01  0.1309E+00  0.6945E+04
  0.1300E-01  0.1318E+00  0.6791E+04
  0.1313E-01  0.1327E+00  0.6652E+04
  0.1326E-01  0.1336E+00  0.6509E+04
  0.1340E-01  0.1345E+00  0.6380E+04
  0.1353E-01  0.1353E+00  0.6259E+04
  0.1367E-01  0.1362E+00  0.6142E+04
  0.1380E-01  0.1370E+00  0.6035E+04
  0.1394E-01  0.1379E+00  0.5927E+04
  0.1408E-01  0.1387E+00  0.5835E+04
  0.1422E-01  0.1395E+00  0.5745E+04
  0.1436E-01  0.1404E+00  0.5661E+04
  0.1451E-01  0.1412E+00  0.5583E+04
  0.1465E-01  0.1420E+00  0.5507E+04
  0.1480E-01  0.1428E+00  0.5440E+04
  0.1495E-01  0.1437E+00  0.5372E+04
  0.1510E-01  0.1445E+00  0.5317E+04
  0.1525E-01  0.1453E+00  0.5262E+04
  0.1540E-01  0.1461E+00  0.5214E+04
  0.1555E-01  0.1469E+00  0.5168E+04
  0.1571E-01  0.1477E+00  0.5126E+04
  0.1587E-01  0.1485E+00  0.5088E+04
  0.1602E-01  0.1494E+00  0.5053E+04
  0.1618E-01  0.1502E+00  0.5027E+04
  0.1635E-01  0.1510E+00  0.5002E+04
  0.1651E-01  0.1519E+00  0.4977E+04
  0.1667E-01  0.1527E+00  0.4960E+04
  0.1684E-01  0.1535E+00  0.4945E+04
  0.1701E-01  0.1544E+00  0.5227E+04
  0.1718E-01  0.1555E+00  0.6919E+04
  0.1735E-01  0.1567E+00  0.6746E+04
  0.1753E-01  0.1578E+00  0.6585E+04
  0.1770E-01  0.1590E+00  0.6430E+04
  0.1788E-01  0.1602E+00  0.6277E+04
  0.1806E-01  0.1613E+00  0.6133E+04
  0.1824E-01  0.1624E+00  0.5990E+04
  0.1842E-01  0.1635E+00  0.5855E+04
  0.1860E-01  0.1646E+00  0.5726E+04
  0.1879E-01  0.1657E+00  0.5602E+04
  0.1898E-01  0.1667E+00  0.5476E+04
  0.1917E-01  0.1678E+00  0.5362E+04
  0.1936E-01  0.1688E+00  0.5250E+04
  0.1955E-01  0.1698E+00  0.5140E+04
  0.1975E-01  0.1709E+00  0.5037E+04
  0.1995E-01  0.1719E+00  0.4938E+04
  0.2014E-01  0.1729E+00  0.4839E+04
  0.2035E-01  0.1738E+00  0.4749E+04
  0.2055E-01  0.1748E+00  0.4658E+04
  0.2076E-01  0.1758E+00  0.4574E+04
  0.2096E-01  0.1767E+00  0.4490E+04
  0.2117E-01  0.1777E+00  0.4411E+04
  0.2138E-01  0.1786E+00  0.4335E+04
  0.2160E-01  0.1796E+00  0.4263E+04
  0.2181E-01  0.1805E+00  0.4194E+04
  0.2203E-01  0.1814E+00  0.4127E+04
  0.2225E-01  0.1824E+00  0.4061E+04
  0.2248E-01  0.1833E+00  0.4002E+04
  0.2270E-01  0.1842E+00  0.3942E+04
  0.2293E-01  0.1851E+00  0.3887E+04
  0.2316E-01  0.1860E+00  0.3833E+04
  0.2339E-01  0.1869E+00  0.3782E+04
  0.2362E-01  0.1878E+00  0.3733E+04
  0.2386E-01  0.1887E+00  0.3689E+04
  0.2410E-01  0.1896E+00  0.3643E+04
  0.2434E-01  0.1905E+00  0.3601E+04
  0.2458E-01  0.1914E+00  0.3563E+04
  0.2483E-01  0.1923E+00  0.3525E+04
  0.2507E-01  0.1931E+00  0.3490E+04
  0.2533E-01  0.1940E+00  0.3457E+04
  0.2558E-01  0.1949E+00  0.3426E+04
  0.2583E-01  0.1958E+00  0.3396E+04
  0.2609E-01  0.1967E+00  0.3370E+04
  0.2635E-01  0.1976E+00  0.3345E+04
  0.2662E-01  0.1985E+00  0.3320E+04
  0.2688E-01  0.1994E+00  0.3300E+04
  0.2715E-01  0.2003E+00  0.3281E+04
  0.2742E-01  0.2012E+00  0.3262E+04
  0.2770E-01  0.2021E+00  0.3246E+04
  0.2798E-01  0.2030E+00  0.3231E+04
  0.2825E-01  0.2039E+00  0.3219E+04
  0.2854E-01  0.2049E+00  0.3207E+04
  0.2882E-01  0.2058E+00  0.3228E+04
  0.2911E-01  0.2069E+00  0.4257E+04
  0.2940E-01  0.2082E+00  0.4167E+04
  0.2970E-01  0.2094E+00  0.4082E+04
  0.2999E-01  0.2106E+00  0.3999E+04
  0.3029E-01  0.2118E+00  0.3919E+04
  0.3060E-01  0.2130E+00  0.3840E+04
  0.3090E-01  0.2142E+00  0.3766E+04
  0.3121E-01  0.2154E+00  0.3693E+04
  0.3152E-01  0.2166E+00  0.3622E+04
  0.3184E-01  0.2177E+00  0.3555E+04
  0.3216E-01  0.2189E+00  0.3490E+04
  0.3248E-01  0.2200E+00  0.3426E+04
  0.3280E-01  0.2211E+00  0.3365E+04
  0.3313E-01  0.2222E+00  0.3306E+04
  0.3346E-01  0.2234E+00  0.3250E+04
  0.3380E-01  0.2245E+00  0.3194E+04
  0.3413E-01  0.2255E+00  0.3141E+04
  0.3448E-01  0.2266E+00  0.3091E+04
  0.3482E-01  0.2277E+00  0.3042E+04
  0.3517E-01  0.2288E+00  0.2995E+04
  0.3552E-01  0.2298E+00  0.2949E+04
  0.3588E-01  0.2309E+00  0.2906E+04
  0.3623E-01  0.2320E+00  0.2863E+04
  0.3660E-01  0.2330E+00  0.2824E+04
  0.3696E-01  0.2341E+00  0.2785E+04
  0.3733E-01  0.2351E+00  0.2748E+04
  0.3771E-01  0.2361E+00  0.2713E+04
  0.3808E-01  0.2372E+00  0.2680E+04
  0.3846E-01  0.2382E+00  0.2647E+04
  0.3885E-01  0.2393E+00  0.2617E+04
  0.3924E-01  0.2403E+00  0.2587E+04
  0.3963E-01  0.2413E+00  0.2559E+04
  0.4003E-01  0.2423E+00  0.2534E+04
  0.4043E-01  0.2434E+00  0.2508E+04
  0.4083E-01  0.2444E+00  0.2485E+04
  0.4124E-01  0.2454E+00  0.2462E+04
  0.4165E-01  0.2465E+00  0.2442E+04
  0.4207E-01  0.2475E+00  0.2422E+04
  0.4249E-01  0.2485E+00  0.2403E+04
  0.4291E-01  0.2496E+00  0.2386E+04
  0.4334E-01  0.2506E+00  0.2371E+04
  0.4378E-01  0.2517E+00  0.2355E+04
  0.4421E-01  0.2527E+00  0.2343E+04
  0.4466E-01  0.2538E+00  0.2330E+04
  0.4510E-01  0.2548E+00  0.2319E+04
  0.4555E-01  0.2559E+00  0.2309E+04
  0.4601E-01  0.2570E+00  0.2300E+04
  0.4647E-01  0.2581E+00  0.2749E+04
  0.4693E-01  0.2595E+00  0.2885E+04
  0.4740E-01  0.2609E+00  0.2829E+04
  0.4788E-01  0.2622E+00  0.2776E+04
  0.4836E-01  0.2636E+00  0.2724E+04
  0.4884E-01  0.2649E+00  0.2673E+04
  0.4933E-01  0.2662E+00  0.2625E+04
  0.4982E-01  0.2675E+00  0.2579E+04
  0.5032E-01  0.2688E+00  0.2533E+04
  0.5082E-01  0.2701E+00  0.2489E+04
  0.5133E-01  0.2714E+00  0.2447E+04
  0.5184E-01  0.2727E+00  0.2406E+04
  0.5236E-01  0.2739E+00  0.2367E+04
  0.5289E-01  0.2752E+00  0.2328E+04
  0.5341E-01  0.2764E+00  0.2292E+04
  0.5395E-01  0.2777E+00  0.2256E+04
  0.5449E-01  0.2789E+00  0.2223E+04
  0.5503E-01  0.2801E+00  0.2190E+04
  0.5558E-01  0.2813E+00  0.2159E+04
  0.5614E-01  0.2826E+00  0.2129E+04
  0.5670E-01  0.2838E+00  0.2100E+04
  0.5727E-01  0.2850E+00  0.2073E+04
  0.5784E-01  0.2862E+00  0.2046E+04
  0.5842E-01  0.2874E+00  0.2021E+04
  0.5900E-01  0.2886E+00  0.1997E+04
  0.5959E-01  0.2898E+00  0.1974E+04
  0.6019E-01  0.2910E+00  0.1952E+04
  0.6079E-01  0.2922E+00  0.1931E+04
  0.6140E-01  0.2934E+00  0.1911E+04
  0.6201E-01  0.2945E+00  0.1893E+04
  0.6263E-01  0.2957E+00  0.1875E+04
  0.6326E-01  0.2969E+00  0.1858E+04
  0.6389E-01  0.2981E+00  0.1843E+04
  0.6453E-01  0.2993E+00  0.1828E+04
  0.6518E-01  0.3005E+00  0.1815E+04
  0.6583E-01  0.3017E+00  0.1802E+04
  0.6649E-01  0.3029E+00  0.1790E+04
  0.6715E-01  0.3041E+00  0.1779E+04
  0.6782E-01  0.3054E+00  0.1769E+04
  0.6850E-01  0.3066E+00  0.1761E+04
  0.6919E-01  0.3078E+00  0.1753E+04
  0.6988E-01  0.3091E+00  0.1844E+04
  0.7058E-01  0.3105E+00  0.2143E+04
  0.7128E-01  0.3120E+00  0.2103E+04
  0.7199E-01  0.3135E+00  0.2065E+04
  0.7271E-01  0.3150E+00  0.2027E+04
  0.7344E-01  0.3165E+00  0.1991E+04
  0.7418E-01  0.3180E+00  0.1956E+04
  0.7492E-01  0.3195E+00  0.1922E+04
  0.7567E-01  0.3209E+00  0.1890E+04
  0.7642E-01  0.3224E+00  0.1858E+04
  0.7719E-01  0.3238E+00  0.1828E+04
  0.7796E-01  0.3253E+00  0.1799E+04
  0.7874E-01  0.3267E+00  0.1771E+04
  0.7953E-01  0.3281E+00  0.1744E+04
  0.8032E-01  0.3295E+00  0.1718E+04
  0.8113E-01  0.3309E+00  0.1693E+04
  0.8194E-01  0.3323E+00  0.1669E+04
  0.8276E-01  0.3337E+00  0.1646E+04
  0.8358E-01  0.3351E+00  0.1625E+04
  0.8442E-01  0.3364E+00  0.1604E+04
  0.8526E-01  0.3378E+00  0.1584E+04
  0.8612E-01  0.3392E+00  0.1565E+04
  0.8698E-01  0.3405E+00  0.1546E+04
  0.8785E-01  0.3419E+00  0.1529E+04
  0.8873E-01  0.3433E+00  0.1513E+04
  0.8961E-01  0.3446E+00  0.1497E+04
  0.9051E-01  0.3460E+00  0.1483E+04
  0.9141E-01  0.3474E+00  0.1469E+04
  0.9233E-01  0.3487E+00  0.1456E+04
  0.9325E-01  0.3501E+00  0.1444E+04
  0.9418E-01  0.3515E+00  0.1432E+04
  0.9513E-01  0.3528E+00  0.1422E+04
  0.9608E-01  0.3542E+00  0.1412E+04
  0.9704E-01  0.3556E+00  0.1403E+04
  0.9801E-01  0.3570E+00  0.1395E+04
  0.9899E-01  0.3584E+00  0.1387E+04
  0.9998E-01  0.3598E+00  0.1381E+04
  0.1010E+00  0.3613E+00  0.1566E+04
  0.1020E+00  0.3629E+00  0.1638E+04
  0.1030E+00  0.3646E+00  0.1608E+04
  0.1040E+00  0.3663E+00  0.1580E+04
  0.1051E+00  0.3679E+00  0.1553E+04
  0.1061E+00  0.3696E+00  0.1525E+04
  0.1072E+00  0.3712E+00  0.1499E+04
  0.1083E+00  0.3729E+00  0.1475E+04
  0.1093E+00  0.3745E+00  0.1451E+04
  0.1104E+00  0.3761E+00  0.1427E+04
  0.1115E+00  0.3777E+00  0.1405E+04
  0.1127E+00  0.3793E+00  0.1384E+04
  0.1138E+00  0.3808E+00  0.1364E+04
  0.1149E+00  0.3824E+00  0.1344E+04
  0.1161E+00  0.3840E+00  0.1325E+04
  0.1172E+00  0.3855E+00  0.1308E+04
  0.1184E+00  0.3871E+00  0.1291E+04
  0.1196E+00  0.3886E+00  0.1274E+04
  0.1208E+00  0.3902E+00  0.1259E+04
  0.1220E+00  0.3917E+00  0.1244E+04
  0.1232E+00  0.3933E+00  0.1230E+04
  0.1244E+00  0.3948E+00  0.1217E+04
  0.1257E+00  0.3963E+00  0.1204E+04
  0.1269E+00  0.3979E+00  0.1193E+04
  0.1282E+00  0.3994E+00  0.1181E+04
  0.1295E+00  0.4010E+00  0.1172E+04
  0.1308E+00  0.4025E+00  0.1161E+04
  0.1321E+00  0.4040E+00  0.1153E+04
  0.1334E+00  0.4056E+00  0.1144E+04
  0.1348E+00  0.4071E+00  0.1137E+04
  0.1361E+00  0.4087E+00  0.1130E+04
  0.1375E+00  0.4103E+00  0.1123E+04
  0.1388E+00  0.4119E+00  0.1137E+04
  0.1402E+00  0.4136E+00  0.1320E+04
  0.1416E+00  0.4155E+00  0.1295E+04
  0.1430E+00  0.4173E+00  0.1273E+04
  0.1445E+00  0.4192E+00  0.1250E+04
  0.1459E+00  0.4210E+00  0.1228E+04
  0.1474E+00  0.4228E+00  0.1208E+04
  0.1489E+00  0.4246E+00  0.1188E+04
  0.1503E+00  0.4264E+00  0.1169E+04
  0.1518E+00  0.4282E+00  0.1151E+04
  0.1534E+00  0.4299E+00  0.1133E+04
  0.1549E+00  0.4317E+00  0.1116E+04
  0.1564E+00  0.4335E+00  0.1100E+04
  0.1580E+00  0.4352E+00  0.1085E+04
  0.1596E+00  0.4369E+00  0.1070E+04
  0.1612E+00  0.4387E+00  0.1056E+04
  0.1628E+00  0.4404E+00  0.1043E+04
  0.1644E+00  0.4421E+00  0.1030E+04
  0.1661E+00  0.4438E+00  0.1018E+04
  0.1677E+00  0.4456E+00  0.1007E+04
  0.1694E+00  0.4473E+00  0.9967E+03
  0.1711E+00  0.4490E+00  0.9858E+03
  0.1728E+00  0.4507E+00  0.9773E+03
  0.1745E+00  0.4524E+00  0.9679E+03
  0.1763E+00  0.4541E+00  0.9598E+03
  0.1781E+00  0.4558E+00  0.9522E+03
  0.1798E+00  0.4576E+00  0.9455E+03
  0.1816E+00  0.4593E+00  0.9386E+03
  0.1834E+00  0.4610E+00  0.9333E+03
  0.1853E+00  0.4628E+00  0.9282E+03
  0.1871E+00  0.4646E+00  0.1045E+04
  0.1890E+00  0.4667E+00  0.1066E+04
  0.1909E+00  0.4687E+00  0.1046E+04
  0.1928E+00  0.4707E+00  0.1028E+04
  0.1947E+00  0.4727E+00  0.1010E+04
  0.1967E+00  0.4747E+00  0.9930E+03
  0.1986E+00  0.4767E+00  0.9772E+03
  0.2006E+00  0.4787E+00  0.9610E+03
  0.2026E+00  0.4806E+00  0.9466E+03
  0.2047E+00  0.4825E+00  0.9319E+03
  0.2067E+00  0.4845E+00  0.9190E+03
  0.2088E+00  0.4864E+00  0.9054E+03
  0.2109E+00  0.4883E+00  0.8934E+03
  0.2130E+00  0.4902E+00  0.8816E+03
  0.2151E+00  0.4921E+00  0.8706E+03
  0.2173E+00  0.4940E+00  0.8598E+03
  0.2194E+00  0.4959E+00  0.8497E+03
  0.2216E+00  0.4978E+00  0.8406E+03
  0.2238E+00  0.4997E+00  0.8318E+03
  0.2261E+00  0.5016E+00  0.8233E+03
  0.2283E+00  0.5035E+00  0.8157E+03
  0.2306E+00  0.5054E+00  0.8089E+03
  0.2329E+00  0.5073E+00  0.8019E+03
  0.2353E+00  0.5092E+00  0.7958E+03
  0.2376E+00  0.5111E+00  0.7905E+03
  0.2400E+00  0.5130E+00  0.7853E+03
  0.2424E+00  0.5149E+00  0.7979E+03
  0.2448E+00  0.5170E+00  0.8987E+03
  0.2473E+00  0.5193E+00  0.8826E+03
  0.2497E+00  0.5215E+00  0.8668E+03
  0.2522E+00  0.5237E+00  0.8516E+03
  0.2548E+00  0.5258E+00  0.8374E+03
  0.2573E+00  0.5280E+00  0.8237E+03
  0.2599E+00  0.5301E+00  0.8104E+03
  0.2625E+00  0.5323E+00  0.7980E+03
  0.2651E+00  0.5344E+00  0.7857E+03
  0.2677E+00  0.5365E+00  0.7743E+03
  0.2704E+00  0.5386E+00  0.7634E+03
  0.2731E+00  0.5407E+00  0.7530E+03
  0.2759E+00  0.5428E+00  0.7432E+03
  0.2786E+00  0.5449E+00  0.7341E+03
  0.2814E+00  0.5469E+00  0.7253E+03
  0.2842E+00  0.5490E+00  0.7171E+03
  0.2871E+00  0.5511E+00  0.7094E+03
  0.2899E+00  0.5531E+00  0.7022E+03
  0.2928E+00  0.5552E+00  0.6954E+03
  0.2958E+00  0.5573E+00  0.6892E+03
  0.2987E+00  0.5594E+00  0.6836E+03
  0.3017E+00  0.5614E+00  0.6784E+03
  0.3047E+00  0.5635E+00  0.6736E+03
  0.3078E+00  0.5656E+00  0.6692E+03
  0.3108E+00  0.5678E+00  0.7401E+03
  0.3140E+00  0.5702E+00  0.7537E+03
  0.3171E+00  0.5726E+00  0.7398E+03
  0.3203E+00  0.5749E+00  0.7272E+03
  0.3235E+00  0.5773E+00  0.7146E+03
  0.3267E+00  0.5796E+00  0.7028E+03
  0.3300E+00  0.5820E+00  0.6916E+03
  0.3333E+00  0.5843E+00  0.6807E+03
  0.3366E+00  0.5866E+00  0.6706E+03
  0.3400E+00  0.5889E+00  0.6607E+03
  0.3434E+00  0.5911E+00  0.6515E+03
  0.3468E+00  0.5934E+00  0.6429E+03
  0.3503E+00  0.5957E+00  0.6344E+03
  0.3538E+00  0.5979E+00  0.6268E+03
  0.3573E+00  0.6002E+00  0.6195E+03
  0.3609E+00  0.6024E+00  0.6126E+03
  0.3645E+00  0.6047E+00  0.6062E+03
  0.3681E+00  0.6069E+00  0.6004E+03
  0.3718E+00  0.6092E+00  0.5950E+03
  0.3755E+00  0.6114E+00  0.5899E+03
  0.3793E+00  0.6137E+00  0.5854E+03
  0.3831E+00  0.6159E+00  0.5812E+03
  0.3869E+00  0.6182E+00  0.5985E+03
  0.3908E+00  0.6207E+00  0.6536E+03
  0.3947E+00  0.6233E+00  0.6416E+03
  0.3986E+00  0.6258E+00  0.6301E+03
  0.4026E+00  0.6284E+00  0.6194E+03
  0.4067E+00  0.6309E+00  0.6090E+03
  0.4107E+00  0.6334E+00  0.5990E+03
  0.4148E+00  0.6359E+00  0.5896E+03
  0.4190E+00  0.6384E+00  0.5806E+03
  0.4232E+00  0.6408E+00  0.5722E+03
  0.4274E+00  0.6433E+00  0.5641E+03
  0.4317E+00  0.6457E+00  0.5567E+03
  0.4360E+00  0.6482E+00  0.5494E+03
  0.4403E+00  0.6506E+00  0.5428E+03
  0.4447E+00  0.6530E+00  0.5366E+03
  0.4492E+00  0.6554E+00  0.5307E+03
  0.4537E+00  0.6579E+00  0.5254E+03
  0.4582E+00  0.6603E+00  0.5204E+03
  0.4628E+00  0.6627E+00  0.5158E+03
  0.4674E+00  0.6651E+00  0.5116E+03
  0.4721E+00  0.6676E+00  0.5080E+03
  0.4768E+00  0.6701E+00  0.5311E+03
  0.4816E+00  0.6727E+00  0.5667E+03
  0.4864E+00  0.6755E+00  0.5563E+03
  0.4913E+00  0.6782E+00  0.5465E+03
  0.4962E+00  0.6810E+00  0.5371E+03
  0.5012E+00  0.6837E+00  0.5281E+03
  0.5062E+00  0.6863E+00  0.5196E+03
  0.5112E+00  0.6890E+00  0.5115E+03
  0.5163E+00  0.6916E+00  0.5038E+03
  0.5215E+00  0.6943E+00  0.4965E+03
  0.5267E+00  0.6969E+00  0.4898E+03
  0.5320E+00  0.6995E+00  0.4834E+03
  0.5373E+00  0.7021E+00  0.4774E+03
  0.5427E+00  0.7047E+00  0.4718E+03
  0.5481E+00  0.7073E+00  0.4666E+03
  0.5536E+00  0.7099E+00  0.4618E+03
  0.5591E+00  0.7125E+00  0.4574E+03
  0.5647E+00  0.7151E+00  0.4534E+03
  0.5704E+00  0.7177E+00  0.4498E+03
  0.5761E+00  0.7203E+00  0.4466E+03
  0.5818E+00  0.7231E+00  0.4963E+03
  0.5876E+00  0.7260E+00  0.4926E+03
  0.5935E+00  0.7290E+00  0.4835E+03
  0.5995E+00  0.7319E+00  0.4751E+03
  0.6054E+00  0.7348E+00  0.4671E+03
  0.6115E+00  0.7376E+00  0.4593E+03
  0.6176E+00  0.7405E+00  0.4522E+03
  0.6238E+00  0.7433E+00  0.4452E+03
  0.6300E+00  0.7461E+00  0.4388E+03
  0.6363E+00  0.7489E+00  0.4327E+03
  0.6427E+00  0.7517E+00  0.4271E+03
  0.6491E+00  0.7545E+00  0.4217E+03
  0.6556E+00  0.7573E+00  0.4168E+03
  0.6622E+00  0.7600E+00  0.4122E+03
  0.6688E+00  0.7628E+00  0.4081E+03
  0.6755E+00  0.7656E+00  0.4043E+03
  0.6822E+00  0.7683E+00  0.4008E+03
  0.6891E+00  0.7711E+00  0.3977E+03
  0.6959E+00  0.7740E+00  0.4288E+03
  0.7029E+00  0.7771E+00  0.4378E+03
  0.7099E+00  0.7802E+00  0.4299E+03
  0.7170E+00  0.7833E+00  0.4221E+03
  0.7242E+00  0.7864E+00  0.4150E+03
  0.7314E+00  0.7894E+00  0.4081E+03
  0.7388E+00  0.7924E+00  0.4016E+03
  0.7461E+00  0.7954E+00  0.3955E+03
  0.7536E+00  0.7984E+00  0.3897E+03
  0.7611E+00  0.8014E+00  0.3843E+03
  0.7688E+00  0.8044E+00  0.3793E+03
  0.7764E+00  0.8073E+00  0.3746E+03
  0.7842E+00  0.8103E+00  0.3703E+03
  0.7921E+00  0.8132E+00  0.3663E+03
  0.8000E+00  0.8162E+00  0.3627E+03
  0.8080E+00  0.8191E+00  0.3594E+03
  0.8161E+00  0.8221E+00  0.3565E+03
  0.8242E+00  0.8251E+00  0.3765E+03
  0.8325E+00  0.8284E+00  0.3916E+03
  0.8408E+00  0.8317E+00  0.3843E+03
  0.8492E+00  0.8349E+00  0.3774E+03
  0.8577E+00  0.8382E+00  0.3709E+03
  0.8663E+00  0.8414E+00  0.3647E+03
  0.8749E+00  0.8446E+00  0.3589E+03
  0.8837E+00  0.8478E+00  0.3534E+03
  0.8925E+00  0.8509E+00  0.3482E+03
  0.9014E+00  0.8541E+00  0.3434E+03
  0.9104E+00  0.8572E+00  0.3390E+03
  0.9195E+00  0.8603E+00  0.3349E+03
  0.9287E+00  0.8635E+00  0.3310E+03
  0.9380E+00  0.8666E+00  0.3276E+03
  0.9474E+00  0.8697E+00  0.3244E+03
  0.9569E+00  0.8728E+00  0.3217E+03
  0.9665E+00  0.8760E+00  0.3312E+03
  0.9761E+00  0.8794E+00  0.3529E+03
  0.9859E+00  0.8829E+00  0.3462E+03
  0.9957E+00  0.8863E+00  0.3399E+03
  0.1006E+01  0.8898E+00  0.3338E+03
  0.1016E+01  0.8932E+00  0.3285E+03
  0.1026E+01  0.8965E+00  0.3229E+03
  0.1036E+01  0.8999E+00  0.3180E+03
  0.1047E+01  0.9032E+00  0.3132E+03
  0.1057E+01  0.9065E+00  0.3092E+03
  0.1068E+01  0.9099E+00  0.3048E+03
  0.1078E+01  0.9132E+00  0.3016E+03
  0.1089E+01  0.9165E+00  0.2978E+03
  0.1100E+01  0.9198E+00  0.2947E+03
  0.1111E+01  0.9231E+00  0.2922E+03
  0.1122E+01  0.9263E+00  0.2898E+03
  0.1133E+01  0.9298E+00  0.3192E+03
  0.1145E+01  0.9335E+00  0.3145E+03
  0.1156E+01  0.9371E+00  0.3087E+03
  0.1168E+01  0.9408E+00  0.3031E+03
  0.1179E+01  0.9443E+00  0.2980E+03
  0.1191E+01  0.9479E+00  0.2931E+03
  0.1203E+01  0.9514E+00  0.2884E+03
  0.1215E+01  0.9549E+00  0.2842E+03
  0.1227E+01  0.9584E+00  0.2802E+03
  0.1239E+01  0.9619E+00  0.2764E+03
  0.1252E+01  0.9654E+00  0.2733E+03
  0.1264E+01  0.9689E+00  0.2701E+03
  0.1277E+01  0.9723E+00  0.2672E+03
  0.1290E+01  0.9758E+00  0.2649E+03
  0.1303E+01  0.9794E+00  0.2744E+03
  0.1316E+01  0.9831E+00  0.2886E+03
  0.1329E+01  0.9869E+00  0.2829E+03
  0.1342E+01  0.9907E+00  0.2779E+03
  0.1356E+01  0.9945E+00  0.2729E+03
  0.1369E+01  0.9983E+00  0.2683E+03
  0.1383E+01  0.1002E+01  0.2639E+03
  0.1397E+01  0.1006E+01  0.2599E+03
  0.1411E+01  0.1009E+01  0.2563E+03
  0.1425E+01  0.1013E+01  0.2527E+03
  0.1439E+01  0.1017E+01  0.2496E+03
  0.1453E+01  0.1020E+01  0.2467E+03
  0.1468E+01  0.1024E+01  0.2442E+03
  0.1483E+01  0.1028E+01  0.2418E+03
  0.1497E+01  0.1031E+01  0.2531E+03
  0.1512E+01  0.1035E+01  0.2624E+03
  0.1527E+01  0.1039E+01  0.2573E+03
  0.1543E+01  0.1043E+01  0.2526E+03
  0.1558E+01  0.1047E+01  0.2482E+03
  0.1574E+01  0.1051E+01  0.2440E+03
  0.1589E+01  0.1055E+01  0.2400E+03
  0.1605E+01  0.1059E+01  0.2365E+03
  0.1621E+01  0.1063E+01  0.2331E+03
  0.1638E+01  0.1067E+01  0.2299E+03
  0.1654E+01  0.1070E+01  0.2271E+03
  0.1671E+01  0.1074E+01  0.2247E+03
  0.1687E+01  0.1078E+01  0.2224E+03
  0.1704E+01  0.1082E+01  0.2263E+03
  0.1721E+01  0.1086E+01  0.2414E+03
  0.1738E+01  0.1090E+01  0.2367E+03
  0.1756E+01  0.1094E+01  0.2323E+03
  0.1773E+01  0.1098E+01  0.2281E+03
  0.1791E+01  0.1102E+01  0.2242E+03
  0.1809E+01  0.1107E+01  0.2205E+03
  0.1827E+01  0.1111E+01  0.2171E+03
  0.1845E+01  0.1115E+01  0.2140E+03
  0.1864E+01  0.1119E+01  0.2111E+03
  0.1882E+01  0.1123E+01  0.2085E+03
  0.1901E+01  0.1127E+01  0.2062E+03
  0.1920E+01  0.1131E+01  0.2042E+03
  0.1939E+01  0.1135E+01  0.2143E+03
  0.1959E+01  0.1139E+01  0.2204E+03
  0.1978E+01  0.1143E+01  0.2161E+03
  0.1998E+01  0.1148E+01  0.2121E+03
  0.2018E+01  0.1152E+01  0.2083E+03
  0.2038E+01  0.1156E+01  0.2048E+03
  0.2059E+01  0.1160E+01  0.2014E+03
  0.2079E+01  0.1165E+01  0.1985E+03
  0.2100E+01  0.1169E+01  0.1957E+03
  0.2121E+01  0.1173E+01  0.1932E+03
