#    t [Myr]     r [kpc]    v [km/s]
   1.000000      0.9178478       356.3770    
   1.100000      0.9521319       335.2294    
   1.200000      0.9872242       343.1323    
   1.300000       1.019066       311.3498    
   1.400000       1.047846       281.4111    
   1.500000       1.076422       279.4171    
   1.600000       1.103231       262.1318    
   1.700000       1.131371       275.1611    
   1.800000       1.157880       259.1988    
   1.900000       1.181163       227.6624    
   2.000000       1.202465       208.2878    
   2.100000       1.224032       210.8893    
   2.200000       1.245201       206.9866    
   2.300000       1.265374       197.2533    
   2.400000       1.286937       210.8457    
   2.500000       1.307074       196.8913    
   2.600000       1.325691       182.0371    
   2.700000       1.342676       166.0846    
   2.800000       1.358691       156.5931    
   2.900000       1.376333       172.5051    
   3.000000       1.395039       182.9006    
   3.100000       1.412769       173.3700    
   3.200000       1.431260       180.8070    
   3.300000       1.449328       176.6648    
   3.400000       1.466616       169.0382    
   3.500000       1.484068       170.6530    
   3.600000       1.500768       163.2863    
   3.700000       1.516735       156.1266    
   3.800000       1.530970       139.1940    
   3.900000       1.544046       127.8499    
   4.000000       1.556515       121.9240    
   4.100000       1.568554       117.7198    
   4.200000       1.580806       119.7966    
   4.300000       1.592809       117.3637    
   4.400000       1.604272       112.0900    
   4.500000       1.615337       108.1881    
   4.600000       1.626758       111.6752    
   4.700000       1.640867       137.9648    
   4.800000       1.654343       131.7660    
   4.900000       1.667352       127.2033    
   5.000000       1.679027       114.1528    
   5.100000       1.688363       91.29073    
   5.200000       1.697317       87.54896    
   5.300000       1.705948       84.39830    
   5.400000       1.714320       81.86022    
   5.500000       1.722481       79.79807    
   5.600000       1.732163       94.66549    
   5.700000       1.743991       115.6605    
   5.800000       1.755388       111.4353    
   5.900000       1.766424       107.9102    
   6.000000       1.777181       105.1803    
   6.100000       1.787610       101.9800    
   6.200000       1.797663       98.29273    
   6.300000       1.807368       94.90150    
   6.400000       1.816797       92.19209    
   6.500000       1.826008       90.06509    
   6.600000       1.836284       100.4811    
   6.700000       1.847449       109.1707    
   6.800000       1.858266       105.7699    
   6.900000       1.868794       102.9425    
   7.000000       1.879072       100.4962    
   7.100000       1.888894       96.03923    
   7.200000       1.898288       91.86102    
   7.300000       1.907413       89.22220    
   7.400000       1.916300       86.88923    
   7.500000       1.924993       85.00498    
   7.600000       1.933505       83.22933    
   7.700000       1.942697       89.87547    
   7.800000       1.951623       87.28769    
   7.900000       1.960310       84.93703    
   8.000000       1.968799       83.00854    
   8.100000       1.977122       81.38145    
   8.200000       1.985317       80.12821    
   8.300000       1.994203       86.88660    
   8.400000       2.002856       84.61214    
   8.500000       2.011281       82.37188    
   8.600000       2.019519       80.55799    
   8.700000       2.027594       78.95406    
   8.800000       2.035546       77.75127    
   8.900000       2.044749       89.99133    
   9.000000       2.053969       90.14921    
   9.100000       2.062975       88.06913    
   9.200000       2.071791       86.19579    
   9.300000       2.080442       84.59631    
   9.400000       2.088895       82.64629    
   9.500000       2.096503       74.38950    
   9.600000       2.103913       72.46029    
   9.700000       2.111164       70.90186    
   9.800000       2.118273       69.50552    
   9.900000       2.125254       68.26417    
   10.00000       2.132124       67.17319    
   10.10000       2.138896       66.21206    
   10.20100       2.146681       75.37250    
   10.30301       2.154520       75.13828    
   10.40604       2.162258       73.44098    
   10.51010       2.169925       72.04179    
   10.61520       2.177526       70.71141    
   10.72135       2.185084       69.62014    
   10.82857       2.192784       70.22559    
   10.93685       2.201436       78.12454    
   11.04622       2.209971       76.30671    
   11.15668       2.218401       74.62166    
   11.26825       2.226755       73.21539    
   11.38093       2.235046       71.95000    
   11.49474       2.243285       70.78127    
   11.60969       2.250946       65.17200    
   11.72579       2.258519       63.77945    
   11.84304       2.266000       62.37990    
   11.96147       2.273401       61.10830    
   12.08109       2.280741       60.00129    
   12.20190       2.288038       59.06438    
   12.32392       2.295374       58.78648    
   12.44716       2.303123       61.48240    
   12.57163       2.310788       60.20791    
   12.69735       2.318357       58.87265    
   12.82432       2.325850       57.69744    
   12.95256       2.333280       56.65434    
   13.08209       2.340673       55.80961    
   13.21291       2.348411       57.83879    
   13.34504       2.357077       64.12881    
   13.47849       2.365642       62.75576    
   13.61327       2.374095       61.32694    
   13.74941       2.382468       60.13446    
   13.88690       2.390770       59.04551    
   14.02577       2.399075       58.47345    
   14.16603       2.407444       58.34664    
   14.30769       2.415700       56.98238    
   14.45076       2.423861       55.77508    
   14.59527       2.431938       54.65232    
   14.74123       2.439948       53.66393    
   14.88864       2.447916       52.84842    
   15.03752       2.457046       59.96328    
   15.18790       2.466261       59.91747    
   15.33978       2.475373       58.66228    
   15.49318       2.484384       57.44204    
   15.64811       2.493324       56.42345    
   15.80459       2.501979       54.08242    
   15.96263       2.509423       46.05309    
   16.12226       2.516749       44.87721    
   16.28348       2.523986       43.89232    
   16.44632       2.531147       42.99897    
   16.61078       2.538247       42.21020    
   16.77689       2.545292       41.47436    
   16.94466       2.552315       40.92747    
   17.11411       2.561451       52.72223    
   17.28525       2.570444       51.37758    
   17.45810       2.579333       50.28738    
   17.63268       2.588121       49.22159    
   17.80901       2.596834       48.31612    
   17.98710       2.605580       48.01900    
   18.16697       2.614645       49.27750    
   18.34864       2.623556       47.96341    
   18.53212       2.632361       46.92157    
   18.71744       2.641071       45.95322    
   18.90462       2.649716       45.16253    
   19.09366       2.658599       45.94615    
   19.28460       2.668016       48.22734    
   19.47745       2.677285       46.99424    
   19.67222       2.686439       45.95587    
   19.86894       2.695497       45.02131    
   20.06763       2.704496       44.28518    
   20.26831       2.713647       44.59090    
   20.47099       2.722774       44.02908    
   20.67570       2.731771       42.97460    
   20.88246       2.740664       42.05850    
   21.09128       2.749472       41.24221    
   21.30220       2.758234       40.61904    
   21.51522       2.769649       52.39824    
   21.73037       2.781018       51.66723    
   21.94768       2.792234       50.47098    
   22.16715       2.803340       49.47854    
   22.38882       2.813752       45.92633    
   22.61271       2.823111       40.87299    
   22.83884       2.832323       39.83291    
   23.06723       2.841429       38.98519    
   23.29790       2.850444       38.21652    
   23.53088       2.859400       37.58792    
   23.76619       2.869371       41.43308    
   24.00385       2.879596       42.06623    
   24.24389       2.889667       41.02710    
   24.48633       2.899628       40.17490    
   24.73119       2.909507       39.44723    
   24.97850       2.919970       41.36577    
   25.22829       2.930687       41.95617    
   25.48057       2.941265       40.99584    
   25.73538       2.951725       40.14067    
   25.99273       2.962082       39.34958    
   26.25266       2.972176       37.97097    
   26.51518       2.982033       36.71443    
   26.78033       2.991771       35.91304    
   27.04814       3.001402       35.16281    
   27.31862       3.010951       34.51839    
   27.59181       3.020206       33.12813    
   27.86772       3.029035       31.28825    
   28.14640       3.037729       30.50399    
   28.42787       3.046326       29.86597    
   28.71214       3.054839       29.28040    
   28.99927       3.063276       28.73211    
   29.28926       3.071728       28.49905    
   29.58215       3.080109       27.97792    
   29.87797       3.088377       27.32896    
   30.00000       3.091785       27.30905    
   30.30000       3.099907       26.47339    
   30.60300       3.107949       25.95248    
   30.90903       3.115942       25.53887    
   31.21812       3.125125       29.04871    
   31.53030       3.135180       31.49559    
   31.84560       3.145088       30.72525    
   32.16406       3.154869       30.03123    
   32.48570       3.164546       29.41923    
   32.81056       3.175176       31.99519    
   33.13866       3.187750       37.47198    
   33.47005       3.200145       36.57259    
   33.80475       3.212378       35.73776    
   34.14280       3.224260       34.36993    
   34.48423       3.234720       29.95543    
   34.82907       3.245025       29.21854    
   35.17736       3.255191       28.53975    
   35.52913       3.265248       27.95655    
   35.88443       3.275061       27.00508    
   36.24327       3.283166       22.08641    
   36.60570       3.291170       21.59240    
   36.97176       3.299060       21.07662    
   37.34148       3.306866       20.64543    
   37.71489       3.314606       20.26728    
   38.09204       3.322299       19.94428    
   38.47296       3.330493       21.03381    
   38.85769       3.339023       21.67792    
   39.24627       3.347404       21.08998    
   39.63873       3.355680       20.61853    
   40.03512       3.363862       20.18317    
   40.43547       3.371967       19.79543    
   40.83982       3.381473       22.98806    
   41.24822       3.393709       29.29662    
   41.66070       3.405736       28.50875    
   42.07731       3.417598       27.84020    
   42.49808       3.429313       27.22390    
   42.92307       3.440074       24.76111    
   43.35229       3.450675       24.14770    
   43.78582       3.461124       23.56760    
   44.22367       3.471457       23.07458    
   44.66591       3.481792       22.85202    
   45.11257       3.492744       23.97496    
   45.56370       3.503502       23.31825    
   46.01933       3.514125       22.79729    
   46.47953       3.524634       22.32921    
   46.94432       3.535323       22.48682    
   47.41376       3.546522       23.32539    
   47.88791       3.557552       22.74736    
   48.36678       3.568439       22.22926    
   48.85045       3.579205       21.76474    
   49.33895       3.589421       20.44833    
   49.83234       3.599141       19.26266    
   50.33067       3.608732       18.82093    
   50.83397       3.618205       18.40311    
   51.34232       3.627587       18.04567    
   51.85574       3.637417       18.72046    
   52.37429       3.649368       22.53499    
   52.89804       3.661122       21.94532    
   53.42702       3.672736       21.46682    
   53.96129       3.684242       21.05762    
   54.50090       3.695031       19.55027    
   55.04591       3.705507       18.79548    
   55.59637       3.715840       18.35546    
   56.15233       3.726061       17.97644    
   56.71386       3.736190       17.63727    
   57.28099       3.748813       21.76394    
   57.85381       3.761888       22.31898    
   58.43234       3.774803       21.82713    
   59.01667       3.787589       21.39686    
   59.60683       3.799790       20.21375    
   60.20290       3.811731       19.58933    
   60.80493       3.823519       19.14483    
   61.41298       3.835188       18.76536    
   62.02711       3.846338       17.75238    
   62.64738       3.856867       16.59847    
   63.27385       3.867252       16.20825    
   63.90659       3.877528       15.88038    
   64.54566       3.887726       15.60270    
   65.19112       3.898288       16.00021    
   65.84303       3.909224       16.40318    
   66.50146       3.920003       16.00815    
   67.16647       3.930667       15.67996    
   67.83813       3.941244       15.39710    
   68.51652       3.953673       17.91433    
   69.20168       3.966810       18.74834    
   69.89370       3.979785       18.33290    
   70.59264       3.992637       17.98062    
   71.29856       4.003945       15.66242    
   72.01155       4.014592       14.60083    
   72.73167       4.025099       14.26702    
   73.45898       4.035503       13.98767    
   74.19357       4.045839       13.75738    
   74.93551       4.057373       15.20066    
   75.68486       4.069048       15.23466    
   76.44171       4.080578       14.89669    
   77.20612       4.091997       14.60632    
   77.97819       4.103875       15.04242    
   78.75797       4.116538       15.87840    
   79.54555       4.129041       15.52348    
   80.34100       4.141410       15.20496    
   81.14442       4.153501       14.71515    
   81.95586       4.164845       13.66914    
   82.77542       4.176059       13.37916    
   83.60317       4.187151       13.10339    
   84.43920       4.198141       12.85310    
   85.28359       4.209195       12.80018    
   86.13643       4.220169       12.58256    
   86.99780       4.231024       12.32201    
   87.86777       4.241771       12.07852    
   88.74645       4.252432       11.86442    
   89.63392       4.264722       13.54125    
   90.53026       4.277127       13.53131    
   91.43555       4.289392       13.24690    
   92.34991       4.301538       12.98954    
   93.27341       4.315019       14.27347    
   94.20615       4.328988       14.64418    
   95.14821       4.342817       14.35363    
   96.09969       4.356537       14.09957    
   97.06068       4.367695       11.35303    
   98.03130       4.378634       11.02023    
   99.01160       4.389451       10.78919    
   100.0000       4.400155       10.58929    
   101.0000       4.410689       10.30015    
   102.0100       4.420689       9.681181    
   103.0301       4.430559       9.460508    
   104.0604       4.440332       9.275285    
   105.1010       4.450025       9.107629    
   106.1520       4.459641       8.946475    
   107.2135       4.473494       12.76000    
   108.2857       4.487413       12.69498    
   109.3685       4.501200       12.44876    
   110.4622       4.515028       12.36246    
   111.5668       4.529232       12.57382    
   112.6825       4.543270       12.30297    
   113.8093       4.557178       12.06902    
   114.9474       4.569788       10.83403    
   116.0969       4.581297       9.790028    
   117.2579       4.592692       9.597010    
   118.4304       4.603985       9.417093    
   119.6147       4.615188       9.249730    
   120.8109       4.625739       8.624931    
   122.0190       4.636184       8.453734    
   123.2392       4.646522       8.283724    
   124.4716       4.656776       8.136106    
   125.7163       4.667047       8.068701    
   126.9735       4.678470       8.884316    
   128.2432       4.689763       8.696392    
   129.5256       4.700949       8.529082    
   130.8209       4.712054       8.383423    
   132.1291       4.723694       8.700432    
   133.4504       4.735937       9.059437    
   134.7849       4.748054       8.878762    
   136.1327       4.760078       8.722824    
   137.4941       4.772060       8.606524    
   138.8690       4.784153       8.600070    
   140.2577       4.796115       8.422011    
   141.6603       4.807979       8.271282    
   143.0769       4.819756       8.128386    
   144.5076       4.832507       8.714479    
   145.9527       4.845248       8.621258    
   147.4122       4.857890       8.468987    
   148.8864       4.870441       8.325672    
   150.3752       4.879976       6.261816    
   151.8790       4.888763       5.713725    
   153.3978       4.897472       5.606767    
   154.9318       4.906106       5.503368    
   156.4811       4.914684       5.414159    
   158.0459       4.923205       5.324457    
   159.6263       4.934792       7.168283    
   161.2226       4.946685       7.285267    
   162.8348       4.958477       7.151751    
   164.4632       4.970189       7.032918    
   166.1078       4.981209       6.551805    
   167.7689       4.991561       6.094100    
   169.4466       5.001806       5.971044    
   171.1411       5.011975       5.867969    
   172.8525       5.022072       5.768617    
   174.5810       5.032272       5.770053    
   176.3268       5.042533       5.746969    
   178.0901       5.052698       5.636657    
   179.8710       5.062787       5.539507    
   181.6697       5.072809       5.448344    
   183.4864       5.084009       6.027734    
   185.3212       5.097002       6.923859    
   187.1744       5.109909       6.810514    
   189.0462       5.122733       6.699130    
   190.9366       5.134624       6.150678    
   192.8460       5.145084       5.356606    
   194.7745       5.155448       5.254692    
   196.7222       5.165744       5.168853    
   198.6894       5.175972       5.083494    
   200.0000       5.182655       4.986131    
   202.0000       5.191547       4.347710    
   204.0200       5.200342       4.257177    
   206.0602       5.209063       4.179645    
   208.1208       5.217721       4.108531    
   210.2020       5.226322       4.040650    
   212.3040       5.235259       4.157303    
   214.4271       5.246212       5.044796    
   216.5713       5.257070       4.951196    
   218.7371       5.267862       4.872257    
   220.9244       5.278580       4.791468    
   223.1337       5.288308       4.305338    
   225.3650       5.296457       3.571031    
   227.6187       5.304520       3.498331    
   229.8948       5.312514       3.434197    
   232.1938       5.320454       3.376698    
   234.5157       5.328333       3.318317    
   236.8609       5.336171       3.267969    
   239.2295       5.344326       3.366351    
   241.6218       5.352422       3.309072    
   244.0380       5.360443       3.246148    
   246.4784       5.368408       3.191061    
   248.9432       5.376315       3.136970    
   251.4326       5.384168       3.084635    
   253.9469       5.393621       3.676263    
   256.4864       5.404828       4.314765    
   259.0513       5.415954       4.241763    
   261.6418       5.427026       4.179046    
   264.2582       5.438062       4.124465    
   266.9008       5.449112       4.088878    
   269.5698       5.460105       4.027104    
   272.2655       5.471051       3.970487    
   274.9881       5.481945       3.912287    
   277.7380       5.492806       3.861992    
   280.5154       5.503773       3.860980    
   283.3206       5.514674       3.799730    
   286.1537       5.525504       3.737679    
   289.0153       5.536280       3.682105    
   291.9055       5.547003       3.628111    
   294.8245       5.557633       3.560561    
   297.7727       5.568195       3.502971    
